SpectraSuite Datei
++++++++++++++++++++++++++++++++++++
Datum: Wed Apr 14 17:50:25 CEST 2021
Benutzer: Student
Dark-Spektrum vorhanden: Nein
Referenz-Spektrum vorhanden: Nein
Zahl der probierten Teilspektren: 1
Spektrometer: USB2+H04734
Integrationszeit (usec): 65000000 (USB2+H04734)
Spektren Durchschnitt berechnet: 1 (USB2+H04734)
Boxcar Glättung: 0 (USB2+H04734)
Dunkelstromkorrektur: Nein (USB2+H04734)
Puls/Lampe aktiviert: Nein (USB2+H04734)
Correct for Detector Non-linearity: Nein (USB2+H04734)
Streulichtkorrektur: Nein (USB2+H04734)
Anzahl Pixel in verarbeitetem Spektrum: 2048
>>>>>Begin Processed Spectral Data<<<<<
418,45	1312,96
418,57	1312,96
418,69	1312,96
418,80	1136,69
418,92	1166,07
419,04	22049,14
419,16	7168,17
419,28	7480,03
419,40	6338,82
419,52	7839,34
419,64	13149,94
419,75	6793,04
419,87	6754,62
419,99	5387,43
420,11	6063,12
420,23	6991,91
420,35	9889,01
420,47	7803,18
420,58	6072,16
420,70	8284,53
420,82	7834,82
420,94	9719,52
421,06	13529,59
421,18	9631,39
421,29	8232,55
421,41	6524,12
421,53	8359,10
421,65	11450,55
421,77	11317,22
421,89	8126,34
422,00	14049,35
422,12	7559,12
422,24	8354,58
422,36	12704,75
422,48	13021,13
422,59	8664,18
422,71	11233,60
422,83	6092,50
422,95	7150,09
423,07	10508,20
423,18	14080,99
423,30	12831,30
423,42	7547,82
423,54	8763,61
423,66	7188,51
423,77	9161,34
423,89	7602,06
424,01	7405,46
424,13	6038,26
424,25	6573,84
424,36	9604,27
424,48	8476,61
424,60	7489,07
424,72	13457,27
424,84	7622,40
424,95	12449,39
425,07	8546,67
425,19	8605,42
425,31	9394,10
425,42	5995,32
425,54	10381,65
425,66	9423,48
425,78	7238,23
425,89	8691,30
426,01	7405,46
426,13	8051,77
426,25	13906,98
426,36	7803,18
426,48	10307,07
426,60	10896,89
426,72	7893,58
426,83	12085,56
426,95	9866,41
427,07	11337,56
427,19	16582,61
427,30	8528,59
427,42	5683,47
427,54	6521,86
427,66	7855,16
427,77	12799,66
427,89	9755,68
428,01	9787,31
428,12	10282,22
428,24	5773,86
428,36	10200,86
428,48	5936,57
428,59	6368,19
428,71	8917,28
428,83	6155,77
428,94	7195,29
429,06	7193,03
429,18	10433,62
429,30	8512,77
429,41	7443,87
429,53	11945,45
429,65	11436,99
429,76	9789,57
429,88	7068,74
430,00	9353,43
430,11	12600,80
430,23	7602,06
430,35	15240,28
430,47	7326,36
430,58	6282,32
430,70	11529,64
430,82	9098,07
430,93	21276,28
431,05	8490,17
431,17	7902,62
431,28	12774,81
431,40	6587,40
431,52	14367,98
431,63	5932,05
431,75	5911,71
431,87	10354,53
431,98	11344,33
432,10	8469,83
432,22	7649,52
432,33	12869,72
432,45	8350,06
432,56	9030,27
432,68	10926,27
432,80	7367,04
432,91	10982,76
433,03	8799,77
433,15	12695,71
433,26	9095,81
433,38	7642,74
433,50	5450,70
433,61	12765,77
433,73	13579,30
433,84	10851,69
433,96	6429,21
434,08	8151,20
434,19	7983,97
434,31	8499,21
434,43	8838,19
434,54	8056,29
434,66	5640,53
434,77	5398,73
434,89	11177,11
435,01	9240,44
435,12	6065,38
435,24	7425,79
435,35	7272,13
435,47	14921,64
435,59	9141,00
435,70	6899,25
435,82	8115,04
435,93	12198,55
436,05	8795,25
436,17	7724,09
436,28	8689,04
436,40	9500,32
436,51	6445,03
436,63	8241,59
436,74	11943,19
436,86	14013,19
436,98	25732,66
437,09	7272,13
437,21	11066,38
437,32	6433,73
437,44	10890,11
437,55	7278,90
437,67	34706,43
437,79	16618,77
437,90	9509,35
438,02	6933,15
438,13	63878,55
438,25	11556,76
438,36	10284,48
438,48	10571,47
438,59	11968,05
438,71	8844,97
438,83	12896,84
438,94	6454,07
439,06	12264,08
439,17	11803,08
439,29	6835,98
439,40	8553,45
439,52	7461,95
439,63	10955,64
439,75	6239,38
439,86	6083,46
439,98	9570,37
440,09	11084,45
440,21	7938,77
440,32	9136,48
440,44	5638,27
440,55	8388,48
440,67	7891,32
440,78	12661,81
440,90	6232,60
441,01	7285,68
441,13	6426,95
441,24	9611,05
441,36	13412,08
441,47	6623,55
441,59	11574,84
441,70	9014,45
441,82	11441,51
441,93	9968,10
442,05	5434,89
442,16	6824,68
442,28	5590,81
442,39	8203,17
442,51	10969,20
442,62	7211,11
442,74	11638,11
442,85	7800,92
442,97	15581,51
443,08	10740,96
443,20	11461,85
443,31	9428,00
443,43	7014,50
443,54	9631,39
443,66	5502,68
443,77	6689,09
443,88	5701,54
444,00	8883,38
444,11	11213,26
444,23	13041,46
444,34	6187,41
444,46	6280,06
444,57	14006,41
444,69	11705,91
444,80	9676,58
444,91	17421,01
445,03	9276,59
445,14	11760,14
445,26	5398,73
445,37	6219,05
445,49	8616,72
445,60	12327,36
445,71	11714,95
445,83	8318,43
445,94	6191,93
446,06	11439,25
446,17	31861,31
446,29	5663,13
446,40	7925,22
446,51	12017,76
446,63	8063,06
446,74	6539,94
446,86	6958,01
446,97	16621,03
447,08	15278,69
447,20	8002,05
447,31	5640,53
447,43	8083,40
447,54	8752,31
447,65	10472,04
447,77	6146,73
447,88	7913,92
448,00	8955,70
448,11	5500,42
448,22	6790,78
448,34	10056,23
448,45	5132,07
448,56	7475,51
448,68	9663,02
448,79	12383,86
448,90	10033,63
449,02	7504,89
449,13	7014,50
449,25	9464,16
449,36	7141,06
449,47	7491,33
449,59	14047,09
449,70	8406,56
449,81	6772,70
449,93	7857,42
450,04	7050,66
450,15	7358,00
450,27	7780,59
450,38	9931,94
450,49	7132,02
450,61	14252,73
450,72	7468,73
450,83	10948,86
450,95	7455,17
451,06	9812,17
451,17	14216,58
451,29	9529,69
451,40	5455,22
451,51	5475,56
451,63	5649,57
451,74	12374,82
451,85	7292,46
451,97	11249,42
452,08	8142,16
452,19	6368,19
452,31	12871,98
452,42	8313,91
452,53	14340,87
452,65	11988,39
452,76	5620,19
452,87	5364,83
452,98	6447,29
453,10	7981,71
453,21	6040,52
453,32	7077,78
453,44	6709,43
453,55	5095,91
453,66	15511,46
453,77	12788,36
453,89	11086,71
454,00	14065,17
454,11	9913,86
454,23	8359,10
454,34	8420,12
454,45	7403,20
454,56	10176,00
454,68	15461,74
454,79	7830,30
454,90	9066,43
455,01	6117,35
455,13	10347,75
455,24	13604,16
455,35	7947,81
455,46	4720,78
455,58	5344,49
455,69	12989,49
455,80	9527,43
455,91	5683,47
456,03	7995,27
456,14	12587,24
456,25	6417,91
456,36	5764,82
456,48	7362,52
456,59	12221,15
456,70	6307,18
456,81	11922,85
456,92	12987,23
457,04	10598,59
457,15	17698,97
457,26	5486,86
457,37	7751,21
457,49	6476,67
457,60	5590,81
457,71	8074,36
457,82	34898,52
457,93	8713,90
458,05	12184,99
458,16	6338,82
458,27	7538,78
458,38	8682,26
458,49	9963,58
458,61	7249,53
458,72	8876,60
458,83	8501,47
458,94	9974,88
459,05	9534,21
459,17	25743,96
459,28	6485,71
459,39	7848,38
459,50	5425,85
459,61	11394,05
459,72	5615,67
459,84	5920,75
459,95	8013,35
460,06	24851,32
460,17	6081,20
460,28	7676,63
460,39	8146,68
460,51	9391,84
460,62	7696,97
460,73	7319,58
460,84	4657,50
460,95	13997,37
461,06	14175,90
461,18	12560,12
461,29	12133,01
461,40	8164,76
461,51	9391,84
461,62	18352,06
461,73	10227,98
461,84	9800,87
461,96	9466,42
462,07	10994,06
462,18	6648,41
462,29	8637,06
462,40	11154,51
462,51	7536,52
462,62	13172,54
462,73	15430,10
462,85	10401,99
462,96	10395,21
463,07	11436,99
463,18	17185,99
463,29	10060,75
463,40	6935,41
463,51	6277,80
463,62	6085,72
463,73	10736,44
463,85	13793,99
463,96	8388,48
464,07	8352,32
464,18	8148,94
464,29	5758,04
464,40	10899,15
464,51	8838,19
464,62	7310,54
464,73	5391,95
464,84	35703,02
464,95	8035,95
465,06	7746,69
465,18	4784,06
465,29	9441,56
465,40	14444,82
465,51	8074,36
465,62	10539,84
465,73	7640,48
465,84	9418,96
465,95	9296,93
466,06	6732,03
466,17	8020,13
466,28	7622,40
466,39	13703,59
466,50	5459,74
466,61	4257,52
466,72	8903,72
466,83	5215,68
466,95	5923,01
467,06	4924,16
467,17	7931,99
467,28	6399,83
467,39	7556,86
467,50	9724,04
467,61	5120,77
467,72	5414,55
467,83	5981,76
467,94	8747,79
468,05	5281,22
468,16	9136,48
468,27	8085,66
468,38	5629,23
468,49	12013,24
468,60	5719,62
468,71	12300,24
468,82	11825,68
468,93	10903,67
469,04	13803,03
469,15	7382,86
469,26	6544,46
469,37	7776,07
469,48	11222,30
469,59	9183,94
469,70	5500,42
469,81	8962,48
469,92	4610,05
470,03	10248,32
470,14	5498,16
470,25	10908,19
470,36	7974,93
470,47	4919,64
470,58	5520,76
470,69	9244,95
470,80	11692,35
470,91	6255,20
471,02	6661,97
471,13	8503,73
471,24	8657,40
471,35	7057,44
471,46	14492,27
471,56	10964,68
471,67	11805,34
471,78	13473,09
471,89	7974,93
472,00	6261,98
472,11	9735,34
472,22	11177,11
472,33	7382,86
472,44	8483,39
472,55	8637,06
472,66	8090,18
472,77	7050,66
472,88	16632,33
472,99	9199,76
473,10	4874,45
473,21	6924,11
473,32	6915,07
473,42	5297,04
473,53	5873,29
473,64	12499,11
473,75	9281,11
473,86	6784,00
473,97	9172,64
474,08	11086,71
474,19	11107,05
474,30	16424,43
474,41	9398,62
474,52	10126,29
474,62	7934,25
474,73	6191,93
474,84	16941,93
474,95	11701,39
475,06	9990,70
475,17	5785,16
475,28	4716,26
475,39	7798,66
475,50	5737,70
475,60	5193,08
475,71	5683,47
475,82	11324,00
475,93	5746,74
476,04	12729,61
476,15	7012,24
476,26	9107,11
476,37	6962,53
476,47	6996,43
476,58	6284,58
476,69	4664,28
476,80	4795,35
476,91	7278,90
477,02	8230,29
477,13	8250,63
477,23	5880,07
477,34	8257,41
477,45	8833,67
477,56	6951,23
477,67	6815,64
477,78	8433,68
477,89	7828,04
477,99	6639,37
478,10	10795,20
478,21	9285,63
478,32	8072,10
478,43	6896,99
478,54	15070,79
478,64	7970,41
478,75	8237,07
478,86	6219,05
478,97	7875,50
479,08	7111,68
479,18	5358,05
479,29	6323,00
479,40	5288,00
479,51	4361,47
479,62	6155,77
479,72	6293,62
479,83	5046,20
479,94	9057,39
480,05	9968,10
480,16	5728,66
480,26	6829,20
480,37	5281,22
480,48	11726,25
480,59	7638,22
480,70	7997,53
480,80	7269,87
480,91	5697,03
481,02	4892,53
481,13	8185,10
481,24	7902,62
481,34	5301,56
481,45	16433,47
481,56	7543,30
481,67	8838,19
481,77	6650,67
481,88	6216,79
481,99	10338,71
482,10	8795,25
482,20	23956,43
482,31	6499,26
482,42	9242,69
482,53	6210,01
482,63	16767,92
482,74	10309,33
482,85	5563,70
482,96	5932,05
483,06	4867,67
483,17	9667,54
483,28	5475,56
483,39	7419,01
483,49	9699,18
483,60	16813,12
483,71	5694,77
483,81	10872,03
483,92	7206,59
484,03	7254,05
484,14	6553,50
484,24	6442,77
484,35	7547,82
484,46	7861,94
484,57	6167,07
484,67	8899,20
484,78	7190,77
484,89	16096,75
484,99	7633,70
485,10	7681,15
485,21	9068,69
485,31	8632,54
485,42	8266,45
485,53	6196,45
485,63	7593,02
485,74	13540,89
485,85	18453,75
485,96	12137,53
486,06	6548,98
486,17	6329,78
486,28	8630,28
486,38	4741,12
486,49	10435,88
486,60	5278,96
486,70	13290,05
486,81	6872,14
486,92	5889,11
487,02	5911,71
487,13	4329,83
487,24	6512,82
487,34	7098,12
487,45	13674,22
487,56	7269,87
487,66	5362,57
487,77	9391,84
487,87	6237,12
487,98	4219,10
488,09	7007,73
488,19	4282,37
488,30	16729,50
488,41	5900,41
488,51	4671,06
488,62	8530,85
488,73	5893,63
488,83	7787,37
488,94	9364,73
489,04	13389,48
489,15	5782,90
489,26	4991,96
489,36	8569,27
489,47	6517,34
489,58	5419,07
489,68	8915,02
489,79	5633,75
489,89	7728,61
490,00	6388,53
490,11	8530,85
490,21	8621,24
490,32	5240,54
490,42	7306,02
490,53	8777,17
490,64	5161,45
490,74	5389,69
490,85	5019,08
490,95	11041,52
491,06	8910,50
491,16	9290,15
491,27	11696,87
491,38	6286,84
491,48	15877,55
491,59	13669,70
491,69	8528,59
491,80	4616,83
491,90	12406,45
492,01	4937,72
492,12	9663,02
492,22	6562,54
492,33	11470,88
492,43	7823,52
492,54	5023,60
492,64	5421,33
492,75	7814,48
492,86	12013,24
492,96	7174,95
493,07	5959,17
493,17	8383,96
493,28	8133,12
493,38	8205,43
493,49	8921,80
493,59	9057,39
493,70	7859,68
493,80	5697,03
493,91	4958,06
494,01	5608,89
494,12	5990,80
494,22	11068,64
494,33	13197,39
494,43	12374,82
494,54	13916,02
494,64	8881,12
494,75	5658,61
494,86	11461,85
494,96	5441,66
495,07	7080,04
495,17	12083,30
495,28	6711,69
495,38	5687,99
495,49	7226,93
495,59	8792,99
495,69	7629,18
495,80	7339,92
495,90	6497,00
496,01	51560,23
496,11	9197,50
496,22	7150,09
496,32	5019,08
496,43	10207,64
496,53	6426,95
496,64	6659,71
496,74	8128,60
496,85	9319,53
496,95	12259,56
497,06	6223,57
497,16	8722,93
497,27	7172,69
497,37	11656,19
497,48	4987,44
497,58	5202,12
497,68	6406,61
497,79	10679,95
497,89	6232,60
498,00	7380,60
498,10	4858,63
498,21	11355,63
498,31	6176,11
498,42	5699,29
498,52	11696,87
498,62	7287,94
498,73	7396,42
498,83	9057,39
498,94	7414,49
499,04	12804,18
499,15	6668,75
499,25	5294,78
499,35	9927,42
499,46	13599,64
499,56	15897,89
499,67	9294,67
499,77	4458,64
499,87	8939,88
499,98	6246,16
500,08	4054,13
500,19	5712,84
500,29	7292,46
500,39	10447,18
500,50	10397,47
500,60	7382,86
500,71	7556,86
500,81	7706,01
500,91	4890,27
501,02	6370,45
501,12	9077,73
501,22	4960,32
501,33	9439,30
501,43	9852,85
501,54	5154,67
501,64	5805,50
501,74	6221,31
501,85	16356,63
501,95	5676,69
502,05	5674,43
502,16	6910,55
502,26	12853,90
502,37	9317,27
502,47	7771,55
502,57	6648,41
502,68	6316,22
502,78	5787,42
502,88	6345,60
502,99	4404,40
503,09	10399,73
503,19	5297,04
503,30	4662,02
503,40	5690,25
503,50	6094,76
503,61	7263,09
503,71	6325,26
503,81	6533,16
503,92	8015,61
504,02	10777,12
504,12	20037,89
504,23	11337,56
504,33	6797,56
504,43	7009,99
504,54	10031,37
504,64	9719,52
504,74	20363,31
504,84	7568,16
504,95	6180,63
505,05	4027,01
505,15	12162,39
505,26	4752,42
505,36	6101,53
505,46	5866,51
505,56	8729,71
505,67	8661,92
505,77	8926,32
505,87	5335,45
505,98	4361,47
506,08	6526,38
506,18	28383,43
506,28	9247,21
506,39	6632,59
506,49	6151,25
506,59	6298,14
506,70	4790,83
506,80	8094,70
506,90	14406,40
507,00	4275,59
507,11	7552,34
507,21	10417,81
507,31	9070,95
507,41	7328,62
507,52	6221,31
507,62	7538,78
507,72	13045,98
507,82	11256,20
507,93	6354,64
508,03	9954,54
508,13	8207,69
508,23	6958,01
508,34	8331,98
508,44	5294,78
508,54	5333,19
508,64	8153,46
508,74	4393,10
508,85	5834,87
508,95	6926,37
509,05	7098,12
509,15	6813,38
509,26	8417,86
509,36	5249,58
509,46	7708,27
509,56	4876,71
509,66	7009,99
509,77	6408,87
509,87	6200,97
509,97	7009,99
510,07	7414,49
510,17	4124,19
510,28	17131,75
510,38	10374,87
510,48	5979,50
510,58	8802,03
510,68	7527,49
510,78	9070,95
510,89	5981,76
510,99	4347,91
511,09	11276,54
511,19	9235,92
511,29	4786,31
511,39	10539,84
511,50	11147,73
511,60	4845,07
511,70	9380,54
511,80	10198,60
511,90	11303,66
512,00	7019,02
512,11	23682,99
512,21	8015,61
512,31	4826,99
512,41	13301,35
512,51	7898,10
512,61	16044,78
512,71	16788,26
512,82	6347,86
512,92	3950,18
513,02	8646,10
513,12	6372,71
513,22	5909,45
513,32	9907,08
513,42	7986,23
513,53	10575,99
513,63	8526,33
513,73	9620,09
513,83	4804,39
513,93	8670,96
514,03	9581,67
514,13	12162,39
514,23	5364,83
514,33	6397,57
514,44	6316,22
514,54	5918,49
514,64	14053,87
514,74	7299,24
514,84	6212,27
514,94	9672,06
515,04	9263,03
515,14	7934,25
515,24	8515,03
515,34	7760,25
515,44	3746,79
515,55	3803,29
515,65	9034,79
515,75	5810,02
515,85	6291,36
515,95	9100,33
516,05	11832,46
516,15	8295,83
516,25	4888,01
516,35	5446,18
516,45	5812,28
516,55	5414,55
516,65	6883,43
516,75	15287,73
516,85	8569,27
516,95	10020,08
517,05	11014,40
517,16	4890,27
517,26	19328,31
517,36	5611,15
517,46	4578,41
517,56	7841,60
517,66	6555,76
517,76	5694,77
517,86	5541,10
517,96	8797,51
518,06	5014,56
518,16	5258,62
518,26	8212,21
518,36	4980,66
518,46	5875,55
518,56	8779,43
518,66	10182,78
518,76	7100,38
518,86	9981,66
518,96	5134,33
519,06	5687,99
519,16	8535,37
519,26	6203,23
519,36	8646,10
519,46	6982,87
519,56	11821,16
519,66	14896,78
519,76	5448,44
519,86	5676,69
519,96	7615,62
520,06	6298,14
520,16	13692,30
520,26	7023,54
520,36	5952,39
520,46	5780,64
520,56	7364,78
520,66	6212,27
520,76	5360,31
520,86	6379,49
520,96	11276,54
521,06	8487,91
521,16	4976,14
521,26	6334,30
521,35	8919,54
521,45	4465,42
521,55	5984,02
521,65	11265,24
521,75	10203,12
521,85	4130,96
521,95	7161,39
522,05	4372,77
522,15	4892,53
522,25	54061,86
522,35	9791,83
522,45	6072,16
522,55	9818,95
522,65	7376,08
522,75	11963,53
522,85	5959,17
522,94	7970,41
523,04	9014,45
523,14	7489,07
523,24	5482,34
523,34	5441,66
523,44	7450,65
523,54	5220,20
523,64	4917,38
523,74	12542,04
523,84	8917,28
523,94	6598,70
524,03	4402,14
524,13	8040,47
524,23	8243,85
524,33	5093,65
524,43	6356,90
524,53	7132,02
524,63	5504,94
524,73	5843,91
524,83	4829,25
524,92	7498,11
525,02	4356,95
525,12	9717,26
525,22	7163,65
525,32	5023,60
525,42	10944,34
525,52	7290,20
525,61	8668,70
525,71	4239,44
525,81	8259,67
525,91	5156,93
526,01	48396,47
526,11	8313,91
526,21	9719,52
526,30	8320,69
526,40	8623,50
526,50	10750,00
526,60	9642,68
526,70	9437,04
526,80	8802,03
526,89	6429,21
526,99	5396,47
527,09	11522,86
527,19	13188,35
527,29	10189,56
527,39	7086,82
527,48	8612,20
527,58	8404,30
527,68	4865,41
527,78	11907,03
527,88	16932,89
527,97	7369,30
528,07	5367,09
528,17	11197,45
528,27	11145,47
528,37	7141,06
528,46	5626,97
528,56	13344,28
528,66	13574,78
528,76	4732,08
528,86	10517,24
528,95	7376,08
529,05	7649,52
529,15	7805,44
529,25	9785,05
529,35	10524,02
529,44	9287,89
529,54	12085,56
529,64	9091,29
529,74	6677,79
529,83	5123,03
529,93	6327,52
530,03	8718,41
530,13	7450,65
530,22	11665,23
530,32	11188,41
530,42	9850,59
530,52	3918,54
530,61	10218,94
530,71	5084,61
530,81	10072,05
530,91	6820,16
531,00	6996,43
531,10	6404,35
531,20	8614,46
531,30	6808,86
531,39	8173,80
531,49	7199,81
531,59	18573,52
531,69	14076,47
531,78	10481,08
531,88	13841,44
531,98	20144,10
532,07	10200,86
532,17	12379,34
532,27	13956,70
532,37	9037,05
532,46	9518,39
532,56	8072,10
532,66	5138,85
532,75	7161,39
532,85	7968,15
532,95	7107,16
533,04	7195,29
533,14	7972,67
533,24	9204,28
533,34	6002,10
533,43	9705,96
533,53	4318,53
533,63	8912,76
533,72	6535,42
533,82	5349,01
533,92	5136,59
534,01	18392,74
534,11	19852,59
534,21	9079,99
534,30	6275,54
534,40	6906,03
534,50	8309,39
534,59	6200,97
534,69	5175,01
534,79	7699,23
534,88	12336,40
534,98	10252,84
535,08	3803,29
535,17	14467,42
535,27	7807,70
535,36	5640,53
535,46	9796,35
535,56	4863,15
535,65	8747,79
535,75	10112,73
535,85	7773,81
535,94	5995,32
536,04	6964,79
536,14	9351,17
536,23	12338,66
536,33	5936,57
536,42	7909,40
536,52	6503,78
536,62	7710,53
536,71	14591,71
536,81	7473,25
536,90	7421,27
537,00	7839,34
537,10	7122,98
537,19	7672,11
537,29	9039,31
537,38	10826,83
537,48	7159,13
537,58	7134,28
537,67	5369,35
537,77	6451,81
537,86	5902,67
537,96	38044,20
538,06	7134,28
538,15	26473,88
538,25	14720,52
538,34	16349,85
538,44	14347,65
538,53	8573,79
538,63	5116,25
538,73	9290,15
538,82	7272,13
538,92	6603,22
539,01	15088,87
539,11	4539,99
539,20	16313,70
539,30	8700,34
539,39	5812,28
539,49	8854,00
539,59	13086,66
539,68	16831,20
539,78	15631,23
539,87	9073,21
539,97	10013,30
540,06	9581,67
540,16	5240,54
540,25	9034,79
540,35	13095,70
540,44	9242,69
540,54	13681,00
540,63	26980,08
540,73	6754,62
540,82	9726,30
540,92	6770,44
541,01	11084,45
541,11	11952,23
541,20	8051,77
541,30	8004,31
541,39	10456,22
541,49	8065,32
541,58	13292,31
541,68	12799,66
541,77	8322,94
541,87	4892,53
541,96	4788,57
542,06	10582,77
542,15	8501,47
542,25	24037,79
542,34	9965,84
542,44	5699,29
542,53	7337,66
542,63	8951,18
542,72	6031,48
542,82	6083,46
542,91	7663,08
543,01	5665,39
543,10	10282,22
543,20	7233,71
543,29	9312,75
543,38	5762,56
543,48	7003,21
543,57	6268,76
543,67	6191,93
543,76	6831,46
543,86	6492,48
543,95	15669,64
544,05	14456,12
544,14	16722,72
544,23	7568,16
544,33	6081,20
544,42	9667,54
544,52	6429,21
544,61	7970,41
544,71	13572,52
544,80	15075,31
544,89	8783,95
544,99	9317,27
545,08	12255,04
545,18	5023,60
545,27	17750,95
545,36	16718,20
545,46	10035,89
545,55	6858,58
545,65	7947,81
545,74	6802,08
545,84	4874,45
545,93	8216,73
546,02	8286,79
546,12	12569,16
546,21	10596,33
546,30	8544,41
546,40	9206,54
546,49	6210,01
546,59	8910,50
546,68	6707,17
546,77	11498,00
546,87	8899,20
546,96	11814,38
547,05	9421,22
547,15	5963,68
547,24	7868,72
547,34	6115,09
547,43	8112,78
547,52	11940,93
547,62	9269,81
547,71	10331,93
547,80	10155,67
547,90	7489,07
547,99	14616,56
548,08	8976,04
548,18	4343,39
548,27	6634,85
548,36	5611,15
548,46	6350,12
548,55	8490,17
548,64	13814,33
548,74	10381,65
548,83	8535,37
548,92	14860,63
549,02	7782,85
549,11	18333,98
549,20	10067,53
549,30	6713,95
549,39	8573,79
549,48	16139,69
549,58	5387,43
549,67	9705,96
549,76	8144,42
549,85	5258,62
549,95	12381,60
550,04	10711,58
550,13	4826,99
550,23	9929,68
550,32	5852,95
550,41	5611,15
550,50	8756,83
550,60	14056,13
550,69	7647,26
550,78	4648,47
550,88	11109,31
550,97	12090,08
551,06	8033,69
551,15	7880,02
551,25	13800,77
551,34	5437,15
551,43	7150,09
551,52	9195,24
551,62	12311,54
551,71	12259,56
551,80	11204,23
551,89	10121,77
551,99	7807,70
552,08	7807,70
552,17	6499,26
552,26	9507,09
552,36	4578,41
552,45	5236,02
552,54	4833,77
552,63	9839,29
552,73	15622,19
552,82	15043,67
552,91	8544,41
553,00	19448,08
553,10	8304,87
553,19	15025,59
553,28	6924,11
553,37	31531,37
553,46	5941,09
553,56	11272,02
553,65	5990,80
553,74	5328,67
553,83	9620,09
553,92	8008,83
554,02	10693,50
554,11	7654,04
554,20	5281,22
554,29	14876,44
554,38	6824,68
554,48	7780,59
554,57	6395,31
554,66	7098,12
554,75	14096,80
554,84	10361,31
554,94	9070,95
555,03	6426,95
555,12	6017,92
555,21	5710,58
555,30	16162,29
555,39	6456,33
555,49	6799,82
555,58	9346,65
555,67	10881,07
555,76	12092,34
555,85	5649,57
555,94	5597,59
556,03	7308,28
556,13	11113,83
556,22	7615,62
556,31	16130,65
556,40	5059,75
556,49	11834,72
556,58	7789,63
556,67	10835,87
556,77	7455,17
556,86	13843,70
556,95	10675,43
557,04	14890,00
557,13	15382,65
557,22	13003,05
557,31	9208,80
557,40	7909,40
557,50	13177,05
557,59	6173,85
557,68	8230,29
557,77	12937,51
557,86	9055,13
557,95	8738,75
558,04	8856,26
558,13	11656,19
558,22	9421,22
558,31	7484,55
558,41	5376,13
558,50	11796,30
558,59	15967,94
558,68	12661,81
558,77	11486,70
558,86	5258,62
558,95	6083,46
559,04	9315,01
559,13	12336,40
559,22	6356,90
559,31	7511,67
559,40	9891,27
559,49	65535,00
559,59	19466,15
559,68	5197,60
559,77	14166,86
559,86	16284,32
559,95	8562,49
560,04	8008,83
560,13	9719,52
560,22	17113,67
560,31	9552,29
560,40	9398,62
560,49	5391,95
560,58	7211,11
560,67	5993,06
560,76	5830,36
560,85	4704,96
560,94	13170,28
561,03	6316,22
561,12	22293,20
561,21	18295,56
561,30	8035,95
561,39	7764,77
561,48	10980,50
561,57	5387,43
561,66	10481,08
561,75	15760,04
561,84	30263,61
561,93	7638,22
562,02	9990,70
562,11	5640,53
562,20	6286,84
562,29	8422,38
562,38	5208,90
562,47	11954,49
562,56	12903,62
562,65	6915,07
562,74	8650,62
562,83	21845,75
562,92	10257,36
563,01	14810,91
563,10	5543,36
563,19	7174,95
563,28	23414,07
563,37	12533,00
563,46	5475,56
563,55	7319,58
563,64	21194,92
563,73	5538,84
563,82	10067,53
563,91	14862,89
564,00	8060,80
564,09	5789,68
564,18	9251,73
564,27	5154,67
564,35	11088,97
564,44	8277,75
564,53	11656,19
564,62	11066,38
564,71	9326,31
564,80	9755,68
564,89	10234,76
564,98	65535,00
565,07	11486,70
565,16	6038,26
565,25	30584,51
565,34	21271,76
565,43	7785,11
565,51	6300,40
565,60	14935,20
565,69	7730,87
565,78	16028,96
565,87	4178,42
565,96	3791,99
566,05	10499,16
566,14	13888,90
566,23	10223,46
566,32	15461,74
566,40	12040,36
566,49	19509,09
566,58	8081,14
566,67	8517,29
566,76	6225,82
566,85	7717,31
566,94	9073,21
567,03	18060,54
567,11	7880,02
567,20	9742,12
567,29	13807,55
567,38	10768,08
567,47	5199,86
567,56	8524,07
567,65	8756,83
567,73	5457,48
567,82	5608,89
567,91	10035,89
568,00	8234,81
568,09	9857,37
568,18	6158,03
568,27	8060,80
568,35	9174,90
568,44	6969,31
568,53	9667,54
568,62	5816,80
568,71	5764,82
568,80	6883,43
568,88	11516,08
568,97	14123,92
569,06	5360,31
569,15	9278,85
569,24	10176,00
569,32	20116,99
569,41	9009,93
569,50	5360,31
569,59	4750,16
569,68	5543,36
569,76	8259,67
569,85	10670,91
569,94	11717,21
570,03	7136,54
570,12	11278,80
570,20	34462,37
570,29	10820,05
570,38	9753,42
570,47	14786,05
570,56	5520,76
570,64	7504,89
570,73	8632,54
570,82	9333,09
570,91	11520,60
570,99	5396,47
571,08	7416,75
571,17	6833,72
571,26	13326,20
571,34	6465,37
571,43	9421,22
571,52	10365,83
571,61	6438,25
571,69	5516,24
571,78	10858,47
571,87	12779,32
571,96	11956,75
572,04	11335,30
572,13	11922,85
572,22	6822,42
572,31	5283,48
572,39	6567,06
572,48	9136,48
572,57	6937,67
572,66	6194,19
572,74	4589,71
572,83	10038,15
572,92	7116,20
573,00	5288,00
573,09	10612,15
573,18	11859,58
573,27	13102,48
573,35	6051,82
573,44	5143,37
573,53	7909,40
573,61	8282,27
573,70	10524,02
573,79	6176,11
573,87	16684,31
573,96	6456,33
574,05	7724,09
574,14	7753,47
574,22	6354,64
574,31	14494,53
574,40	5303,82
574,48	8359,10
574,57	8831,41
574,66	11093,49
574,74	7895,84
574,83	12539,78
574,92	12774,81
575,00	15624,45
575,09	12799,66
575,18	6704,91
575,26	14478,72
575,35	6585,14
575,43	6958,01
575,52	10973,72
575,61	14675,32
575,69	11875,39
575,78	6379,49
575,87	17378,07
575,95	9963,58
576,04	8212,21
576,13	9299,19
576,21	6815,64
576,30	10126,29
576,38	9138,74
576,47	10862,99
576,56	22812,96
576,64	8196,39
576,73	12171,43
576,82	10768,08
576,90	8951,18
576,99	12930,73
577,07	9437,04
577,16	11549,98
577,25	10589,55
577,33	18372,40
577,42	9012,19
577,50	6639,37
577,59	9174,90
577,68	13396,26
577,76	8259,67
577,85	7891,32
577,93	9421,22
578,02	9513,87
578,10	9400,88
578,19	9226,88
578,28	7504,89
578,36	8160,24
578,45	10338,71
578,53	5938,83
578,62	6133,17
578,70	6343,34
578,79	8481,13
578,88	8580,57
578,96	6094,76
579,05	6300,40
579,13	21762,14
579,22	10011,04
579,30	6639,37
579,39	10501,42
579,47	15425,58
579,56	7441,61
579,64	42866,67
579,73	7993,01
579,82	10300,29
579,90	6271,02
579,99	6777,22
580,07	10388,43
580,16	8921,80
580,24	11717,21
580,33	4854,11
580,41	9202,02
580,50	5656,35
580,58	8512,77
580,67	7486,81
580,75	11355,63
580,84	8171,54
580,92	5782,90
581,01	15495,64
581,09	9565,85
581,18	7848,38
581,26	6519,60
581,35	6707,17
581,43	11547,72
581,52	8930,84
581,60	10160,18
581,69	7974,93
581,77	9231,40
581,86	9672,06
581,94	7683,41
582,02	10862,99
582,11	5805,50
582,19	13974,77
582,28	17613,10
582,36	16302,40
582,45	16519,34
582,53	6558,02
582,62	6763,66
582,70	6761,40
582,79	10139,85
582,87	6106,05
582,96	10386,17
583,04	14842,55
583,12	9299,19
583,21	9048,35
583,29	11233,60
583,38	9909,34
583,46	8616,72
583,55	9100,33
583,63	5676,69
583,71	10503,68
583,80	8637,06
583,88	6817,90
583,97	18930,58
584,05	10169,22
584,13	11667,49
584,22	10856,21
584,30	7355,74
584,39	10946,60
584,47	12284,42
584,55	6700,39
584,64	9321,79
584,72	9687,88
584,81	7226,93
584,89	6558,02
584,97	6243,90
585,06	6673,27
585,14	8483,39
585,23	9719,52
585,31	6752,36
585,39	7721,83
585,48	9647,20
585,56	5333,19
585,64	9550,03
585,73	8469,83
585,81	8171,54
585,90	11491,22
585,98	7113,94
586,06	22218,62
586,15	14519,39
586,23	5398,73
586,31	6693,61
586,40	5780,64
586,48	13179,31
586,56	6415,65
586,65	6551,24
586,73	6266,50
586,81	10953,38
586,90	7735,39
586,98	5012,30
587,06	5014,56
587,15	7613,36
587,23	7389,64
587,31	8388,48
587,40	6508,30
587,48	5913,97
587,56	12781,58
587,65	19387,06
587,73	10675,43
587,81	9592,97
587,90	18865,04
587,98	7590,76
588,06	6492,48
588,14	6277,80
588,23	7052,92
588,31	16304,66
588,39	10962,42
588,48	7699,23
588,56	6374,97
588,64	10015,56
588,72	9127,44
588,81	7195,29
588,89	8171,54
588,97	8618,98
589,06	13213,21
589,14	13012,09
589,22	11070,90
589,30	7821,26
589,39	6625,81
589,47	11308,18
589,55	15491,12
589,63	9159,08
589,72	7224,67
589,80	7077,78
589,88	10390,69
589,96	11565,80
590,05	9502,58
590,13	9507,09
590,21	12763,51
590,29	13947,66
590,38	20754,26
590,46	13699,07
590,54	9378,28
590,62	6833,72
590,71	12293,46
590,79	13258,41
590,87	5247,32
590,95	6137,69
591,03	7886,80
591,12	10589,55
591,20	8417,86
591,28	15823,31
591,36	9839,29
591,44	7830,30
591,53	8417,86
591,61	8164,76
591,69	6424,69
591,77	9299,19
591,85	9215,58
591,94	6512,82
592,02	7272,13
592,10	11757,88
592,18	11380,49
592,26	8483,39
592,34	6054,08
592,43	5062,01
592,51	5507,20
592,59	6585,14
592,67	6101,53
592,75	6691,35
592,84	7744,43
592,92	11821,16
593,00	7091,34
593,08	7371,56
593,16	6013,40
593,24	7934,25
593,32	11041,52
593,41	9285,63
593,49	5434,89
593,57	6845,02
593,65	6332,04
593,73	9690,14
593,81	11360,15
593,89	12539,78
593,98	7918,44
594,06	6167,07
594,14	7581,72
594,22	6885,69
594,30	6698,13
594,38	7696,97
594,46	13360,10
594,54	11690,09
594,62	11154,51
594,71	7692,45
594,79	6750,10
594,87	8628,02
594,95	8006,57
595,03	13003,05
595,11	8386,22
595,19	15190,56
595,27	7857,42
595,35	6630,33
595,43	6478,93
595,52	7041,62
595,60	7276,64
595,68	16761,14
595,76	5850,69
595,84	10546,62
595,92	6130,91
596,00	13769,13
596,08	11870,87
596,16	9330,83
596,24	8203,17
596,32	7588,50
596,40	10205,38
596,48	10160,18
596,56	10049,45
596,64	5986,28
596,73	13721,67
596,81	6689,09
596,89	9565,85
596,97	5111,73
597,05	22200,55
597,13	7416,75
597,21	5290,26
597,29	14112,62
597,37	14767,97
597,45	9708,22
597,53	5319,63
597,61	9125,18
597,69	10996,32
597,77	7751,21
597,85	6903,77
597,93	8564,75
598,01	7658,56
598,09	11251,68
598,17	7954,59
598,25	8661,92
598,33	5258,62
598,41	7358,00
598,49	5229,24
598,57	6447,29
598,65	7606,58
598,73	8096,96
598,81	9394,10
598,89	7830,30
598,97	5753,52
599,05	13326,20
599,13	9163,60
599,21	8173,80
599,29	8790,73
599,37	7482,29
599,45	6596,44
599,53	18959,95
599,61	6539,94
599,69	9859,63
599,77	7959,11
599,85	6381,75
599,93	7362,52
600,00	5043,94
600,08	10173,74
600,16	5297,04
600,24	5760,30
600,32	14435,78
600,40	15617,67
600,48	12912,65
600,56	12216,63
600,64	14035,79
600,72	7981,71
600,80	8386,22
600,88	9563,59
600,96	13308,12
601,04	5568,22
601,12	6499,26
601,19	4619,09
601,27	11256,20
601,35	8322,94
601,43	11145,47
601,51	9107,11
601,59	7936,51
601,67	6173,85
601,75	6833,72
601,83	8628,02
601,91	5068,79
601,98	5568,22
602,06	12300,24
602,14	8924,06
602,22	9805,39
602,30	11018,92
602,38	8698,08
602,46	5678,95
602,54	12205,33
602,61	9098,07
602,69	8411,08
602,77	5351,27
602,85	5843,91
602,93	5830,36
603,01	8230,29
603,09	12246,01
603,17	6973,83
603,24	9617,83
603,32	5143,37
603,40	16962,27
603,48	10524,02
603,56	5032,64
603,64	5509,46
603,71	5780,64
603,79	9000,89
603,87	9098,07
603,95	18022,12
604,03	7195,29
604,11	11739,80
604,18	8969,26
604,26	6388,53
604,34	5059,75
604,42	7278,90
604,50	5834,87
604,57	6020,18
604,65	7875,50
604,73	8225,77
604,81	54809,86
604,89	6698,13
604,96	7328,62
605,04	9663,02
605,12	7104,90
605,20	10650,57
605,28	12688,93
605,35	8295,83
605,43	8835,93
605,51	7104,90
605,59	11927,37
605,67	16060,59
605,74	12246,01
605,82	8472,09
605,90	5753,52
605,98	14650,46
606,05	8083,40
606,13	10270,92
606,21	7665,34
606,29	7776,07
606,36	8121,82
606,44	6361,41
606,52	8232,55
606,60	7380,60
606,67	5190,82
606,75	6603,22
606,83	4535,47
606,91	11070,90
606,98	5834,87
607,06	7943,29
607,14	7170,43
607,22	7570,42
607,29	6219,05
607,37	8090,18
607,45	9579,41
607,52	10641,53
607,60	10399,73
607,68	7660,82
607,76	9776,01
607,83	4560,33
607,91	10067,53
607,99	7529,75
608,06	8863,04
608,14	6813,38
608,22	7669,85
608,30	12779,32
608,37	5491,38
608,45	4280,11
608,53	8503,73
608,60	9122,92
608,68	5979,50
608,76	7086,82
608,83	10524,02
608,91	5593,07
608,99	10632,49
609,06	10103,69
609,14	10083,35
609,22	7638,22
609,29	6042,78
609,37	5710,58
609,45	11337,56
609,52	5712,84
609,60	5868,77
609,68	6408,87
609,75	7617,88
609,83	4926,42
609,91	15592,81
609,98	6650,67
610,06	9656,24
610,13	10347,75
610,21	8334,24
610,29	8209,95
610,36	4711,74
610,44	6386,27
610,52	7798,66
610,59	6580,62
610,67	5310,59
610,74	7800,92
610,82	7561,38
610,90	9161,34
610,97	6698,13
611,05	9443,82
611,13	9321,79
611,20	25052,45
611,28	6178,37
611,35	7622,40
611,43	8869,82
611,51	9127,44
611,58	8275,49
611,66	12998,53
611,73	5769,34
611,81	12709,27
611,88	8743,27
611,96	10284,48
612,04	5622,45
612,11	5552,40
612,19	14449,34
612,26	6860,84
612,34	8033,69
612,41	7398,68
612,49	4413,44
612,57	4666,54
612,64	5489,12
612,72	15321,63
612,79	15757,78
612,87	4718,52
612,94	4402,14
613,02	8011,09
613,09	7030,32
613,17	9274,33
613,24	6926,37
613,32	10951,12
613,40	6481,19
613,47	7217,89
613,55	5242,80
613,62	11782,74
613,70	12022,28
613,77	5984,02
613,85	11012,14
613,92	7009,99
614,00	5193,08
614,07	6668,75
614,15	4347,91
614,22	5170,49
614,30	9082,25
614,37	4921,90
614,45	8232,55
614,52	5669,91
614,60	7206,59
614,67	10438,14
614,75	4605,53
614,82	9513,87
614,90	6194,19
614,97	5156,93
615,05	13590,60
615,12	10379,39
615,20	7771,55
615,27	7611,10
615,34	7353,48
615,42	7233,71
615,49	7633,70
615,57	4869,93
615,64	5642,79
615,72	6196,45
615,79	6939,93
615,87	8743,27
615,94	15102,43
616,02	8341,02
616,09	11755,62
616,16	8790,73
616,24	7963,63
616,31	5208,90
616,39	12820,00
616,46	11400,83
616,54	8347,80
616,61	14286,63
616,68	6139,95
616,76	7342,18
616,83	10539,84
616,91	6076,68
616,98	5674,43
617,06	11412,13
617,13	5893,63
617,20	6411,13
617,28	7748,95
617,35	5093,65
617,43	11803,08
617,50	6237,12
617,57	7672,11
>>>>>End Processed Spectral Data<<<<<
