SpectraSuite Datei
++++++++++++++++++++++++++++++++++++
Datum: Wed Apr 14 15:56:56 CEST 2021
Benutzer: Student
Dark-Spektrum vorhanden: Ja
Referenz-Spektrum vorhanden: Nein
Zahl der probierten Teilspektren: 1
Spektrometer: USB2+H04734
Integrationszeit (usec): 65000000 (USB2+H04734)
Spektren Durchschnitt berechnet: 5 (USB2+H04734)
Boxcar Glättung: 0 (USB2+H04734)
Dunkelstromkorrektur: Nein (USB2+H04734)
Puls/Lampe aktiviert: Nein (USB2+H04734)
Correct for Detector Non-linearity: Nein (USB2+H04734)
Streulichtkorrektur: Nein (USB2+H04734)
Anzahl Pixel in verarbeitetem Spektrum: 2048
>>>>>Begin Processed Spectral Data<<<<<
418,45	-0,45
418,57	-0,45
418,69	-0,45
418,80	-39,32
418,92	-42,03
419,04	151,86
419,16	7,23
419,28	17,17
419,40	0,45
419,52	215,14
419,64	189,83
419,75	25,31
419,87	-83,16
419,99	-134,23
420,11	-194,80
420,23	-104,40
420,35	111,64
420,47	-123,84
420,58	-28,47
420,70	-116,16
420,82	3,16
420,94	45,20
421,06	-34,35
421,18	-128,81
421,29	-22,15
421,41	40,68
421,53	-0,45
421,65	-106,21
421,77	-56,50
421,89	64,18
422,00	-120,67
422,12	37,51
422,24	-26,67
422,36	-160,00
422,48	-3,16
422,59	-71,41
422,71	-97,17
422,83	-53,78
422,95	110,73
423,07	-9,49
423,18	109,38
423,30	118,87
423,42	28,02
423,54	82,71
423,66	18,53
423,77	112,54
423,89	223,27
424,01	4,97
424,13	30,73
424,25	127,00
424,36	-16,27
424,48	0,00
424,60	-54,24
424,72	-184,85
424,84	71,86
424,95	-25,31
425,07	26,21
425,19	27,57
425,31	-33,90
425,42	-17,17
425,54	-43,39
425,66	39,32
425,78	-55,14
425,89	-88,59
426,01	0,45
426,13	-185,31
426,25	190,28
426,36	-67,34
426,48	-142,82
426,60	-50,17
426,72	58,76
426,83	-53,78
426,95	65,53
427,07	-94,46
427,19	-92,20
427,30	117,51
427,42	154,57
427,54	-46,55
427,66	108,02
427,77	-141,92
427,89	-17,63
428,01	-15,37
428,12	-29,38
428,24	48,36
428,36	-23,95
428,48	-70,51
428,59	-20,79
428,71	-122,93
428,83	-59,66
428,94	-42,03
429,06	27,12
429,18	14,01
429,30	65,54
429,41	37,06
429,53	-131,97
429,65	-121,58
429,76	77,74
429,88	-64,18
430,00	-131,97
430,11	-2,26
430,23	16,72
430,35	-43,84
430,47	-125,19
430,58	137,85
430,70	-94,01
430,82	-9,94
430,93	-40,22
431,05	65,99
431,17	-144,18
431,28	16,72
431,40	-98,53
431,52	4,97
431,63	33,90
431,75	-168,13
431,87	-49,72
431,98	137,40
432,10	72,77
432,22	14,46
432,33	-93,56
432,45	89,94
432,56	-16,27
432,68	25,76
432,80	-135,59
432,91	-113,90
433,03	131,07
433,15	19,43
433,26	-125,19
433,38	-103,05
433,50	21,69
433,61	-214,68
433,73	-110,28
433,84	-32,99
433,96	-35,71
434,08	-9,94
434,19	125,65
434,31	-75,48
434,43	22,60
434,54	-186,66
434,66	-43,39
434,77	30,28
434,89	-140,11
435,01	-87,68
435,12	23,05
435,24	35,71
435,35	-143,27
435,47	104,86
435,59	24,86
435,70	139,66
435,82	74,12
435,93	-6,33
436,05	-77,74
436,17	11,75
436,28	99,88
436,40	51,52
436,51	-15,82
436,63	-22,60
436,74	104,86
436,86	-169,04
436,98	-22,15
437,09	-65,99
437,21	167,68
437,32	39,77
437,44	98,08
437,55	64,63
437,67	-202,93
437,79	-92,20
437,90	72,31
438,02	-51,07
438,13	17,63
438,25	-68,25
438,36	32,54
438,48	10,40
438,59	-86,78
438,71	-160,45
438,83	-112,54
438,94	-239,99
439,06	80,90
439,17	-95,82
439,29	-34,35
439,40	-160,45
439,52	12,20
439,63	-127,45
439,75	-116,61
439,86	-80,45
439,98	129,71
440,09	-66,44
440,21	-2,26
440,32	213,33
440,44	-131,07
440,55	-187,11
440,67	-105,31
440,78	-37,97
440,90	46,10
441,01	-161,35
441,13	127,91
441,24	179,88
441,36	-130,17
441,47	147,34
441,59	160,90
441,70	37,06
441,82	30,28
441,93	-117,06
442,05	-39,32
442,16	152,31
442,28	-138,30
442,39	3,16
442,51	233,21
442,62	8,14
442,74	-144,18
442,85	70,96
442,97	112,09
443,08	-164,06
443,20	-136,95
443,31	-90,85
443,43	-143,27
443,54	81,81
443,66	-98,98
443,77	-184,85
443,88	-34,35
444,00	37,97
444,11	32,09
444,23	-80,45
444,34	-71,86
444,46	-10,40
444,57	-180,79
444,69	65,54
444,80	285,64
444,91	176,72
445,03	-49,72
445,14	-57,85
445,26	-15,82
445,37	39,32
445,49	140,11
445,60	65,54
445,71	-109,83
445,83	24,41
445,94	-51,52
446,06	-88,13
446,17	184,85
446,29	-16,27
446,40	-66,44
446,51	54,24
446,63	-96,72
446,74	-36,16
446,86	68,70
446,97	-15,37
447,08	143,73
447,20	10,40
447,31	109,83
447,43	-68,25
447,54	202,03
447,65	-175,81
447,77	-110,28
447,88	103,95
448,00	-71,41
448,11	-93,10
448,22	147,79
448,34	52,88
448,45	18,08
448,56	103,05
448,68	163,61
448,79	-76,38
448,90	-213,33
449,02	-39,32
449,13	32,99
449,25	-127,45
449,36	27,12
449,47	-55,14
449,59	-98,98
449,70	88,13
449,81	45,65
449,93	164,52
450,04	60,56
450,15	-38,42
450,27	-70,05
450,38	79,55
450,49	-114,80
450,61	161,80
450,72	42,94
450,83	237,73
450,95	214,23
451,06	-130,17
451,17	-137,40
451,29	3,62
451,40	-95,36
451,51	-75,93
451,63	107,57
451,74	100,79
451,85	73,22
451,97	324,96
452,08	39,77
452,19	-61,47
452,31	72,77
452,42	-205,19
452,53	-11,30
452,65	-174,46
452,76	-4,07
452,87	103,50
452,98	59,66
453,10	0,00
453,21	32,54
453,32	-39,32
453,44	120,22
453,55	6,78
453,66	-47,46
453,77	153,67
453,89	64,18
454,00	-36,16
454,11	189,37
454,23	141,01
454,34	41,58
454,45	45,65
454,56	-48,81
454,68	248,58
454,79	-116,16
454,90	6,78
455,01	-5,88
455,13	-6,78
455,24	35,71
455,35	-44,29
455,46	-78,19
455,58	34,35
455,69	120,67
455,80	-316,38
455,91	-139,66
456,03	-153,22
456,14	266,21
456,25	68,70
456,36	10,40
456,48	0,45
456,59	-127,45
456,70	-32,09
456,81	27,57
456,92	-92,20
457,04	-23,95
457,15	4,07
457,26	9,04
457,37	61,02
457,49	110,28
457,60	-51,07
457,71	-87,23
457,82	260,33
457,93	126,55
458,05	-64,63
458,16	47,91
458,27	42,94
458,38	14,01
458,49	179,88
458,61	84,97
458,72	101,24
458,83	356,60
458,94	87,68
459,05	43,39
459,17	329,48
459,28	-19,43
459,39	-195,70
459,50	-97,62
459,61	131,52
459,72	59,21
459,84	-70,05
459,95	95,82
460,06	139,66
460,17	94,91
460,28	116,61
460,39	-24,86
460,51	-34,35
460,62	55,14
460,73	100,34
460,84	102,14
460,95	-117,06
461,06	66,44
461,18	-70,51
461,29	157,28
461,40	-75,48
461,51	230,05
461,62	49,72
461,73	-36,61
461,84	-113,44
461,96	-40,68
462,07	-166,32
462,18	-40,68
462,29	131,97
462,40	-10,40
462,51	68,70
462,62	155,02
462,73	131,52
462,85	233,21
462,96	131,07
463,07	216,94
463,18	-35,71
463,29	28,02
463,40	36,16
463,51	-76,38
463,62	-111,18
463,73	-19,89
463,85	-221,46
463,96	-23,05
464,07	-60,11
464,18	602,02
464,29	42,03
464,40	-160,00
464,51	42,03
464,62	6,78
464,73	70,96
464,84	294,23
464,95	-23,50
465,06	38,87
465,18	172,65
465,29	76,38
465,40	-17,17
465,51	124,74
465,62	-64,18
465,73	-79,55
465,84	-103,05
465,95	-93,56
466,06	74,12
466,17	-112,99
466,28	-102,60
466,39	218,30
466,50	-27,57
466,61	245,42
466,72	-23,05
466,83	77,74
466,95	-82,26
467,06	33,90
467,17	3,16
467,28	-24,41
467,39	-14,46
467,50	-90,85
467,61	11,30
467,72	42,48
467,83	86,78
467,94	-89,94
468,05	13,56
468,16	86,33
468,27	-80,45
468,38	97,62
468,49	34,80
468,60	98,53
468,71	-67,34
468,82	-79,55
468,93	-90,85
469,04	-176,27
469,15	-43,84
469,26	40,68
469,37	-92,20
469,48	108,47
469,59	-81,35
469,70	-124,29
469,81	-151,41
469,92	-164,52
470,03	32,54
470,14	-38,42
470,25	-70,05
470,36	-23,50
470,47	-22,60
470,58	-37,06
470,69	134,23
470,80	49,26
470,91	56,95
471,02	-81,35
471,13	-41,58
471,24	-24,41
471,35	-29,38
471,46	-20,34
471,56	13,56
471,67	111,18
471,78	23,50
471,89	150,50
472,00	17,63
472,11	89,04
472,22	305,08
472,33	-95,36
472,44	79,09
472,55	137,40
472,66	-234,57
472,77	-3,62
472,88	30,28
472,99	-56,95
473,10	-28,93
473,21	-89,94
473,32	-44,29
473,42	-29,38
473,53	-146,44
473,64	-137,85
473,75	-46,10
473,86	-47,46
473,97	86,33
474,08	213,33
474,19	185,31
474,30	-124,74
474,41	199,77
474,52	-58,30
474,62	-38,42
474,73	-88,13
474,84	110,73
474,95	-22,15
475,06	-102,14
475,17	-34,80
475,28	-25,31
475,39	-77,29
475,50	-58,76
475,60	61,47
475,71	-268,92
475,82	-141,92
475,93	-118,41
476,04	-27,57
476,15	-251,29
476,26	1,81
476,37	35,71
476,47	-48,81
476,58	95,82
476,69	15,37
476,80	-61,47
476,91	93,10
477,02	-73,67
477,13	-68,70
477,23	32,99
477,34	-25,31
477,45	54,24
477,56	-81,35
477,67	165,42
477,78	-156,38
477,89	105,76
477,99	37,97
478,10	-134,23
478,21	-21,24
478,32	61,47
478,43	-235,93
478,54	-107,57
478,64	74,57
478,75	-39,77
478,86	-59,21
478,97	89,49
479,08	-56,95
479,18	92,65
479,29	18,98
479,40	7,23
479,51	14,91
479,62	-123,84
479,72	51,52
479,83	139,21
479,94	50,17
480,05	84,07
480,16	-21,69
480,26	149,60
480,37	16,27
480,48	-11,75
480,59	8,59
480,70	-73,67
480,80	106,21
480,91	59,21
481,02	-2,26
481,13	-32,54
481,24	-10,40
481,34	-148,24
481,45	-230,05
481,56	41,13
481,67	-111,64
481,77	-51,98
481,88	0,45
481,99	8,14
482,10	145,53
482,20	17,63
482,31	-0,45
482,42	33,90
482,53	-18,98
482,63	-55,14
482,74	81,35
482,85	73,22
482,96	87,23
483,06	-84,97
483,17	-4,07
483,28	164,06
483,39	-57,40
483,49	210,16
483,60	-312,31
483,71	122,48
483,81	-13,11
483,92	104,86
484,03	-141,01
484,14	-146,89
484,24	136,04
484,35	9,04
484,46	164,06
484,57	17,17
484,67	-115,70
484,78	-5,42
484,89	-217,40
484,99	128,36
485,10	-81,35
485,21	17,63
485,31	27,57
485,42	98,08
485,53	-58,30
485,63	-36,16
485,74	-262,59
485,85	143,27
485,96	-7444,32
486,06	-17,17
486,17	-104,86
486,28	-15,82
486,38	-63,28
486,49	-28,93
486,60	-44,74
486,70	-187,57
486,81	-6,78
486,92	8,59
487,02	-164,52
487,13	-37,06
487,24	118,41
487,34	71,41
487,45	-33,90
487,56	-53,78
487,66	-60,56
487,77	44,74
487,87	-18,53
487,98	-90,39
488,09	17,63
488,19	-101,24
488,30	-222,37
488,41	-89,04
488,51	96,27
488,62	-10,40
488,73	-3,16
488,83	76,83
488,94	-83,16
489,04	-96,72
489,15	-70,05
489,26	10,85
489,36	-16,72
489,47	-78,64
489,58	56,95
489,68	130,62
489,79	-101,69
489,89	-223,72
490,00	18,53
490,11	85,42
490,21	18,53
490,32	-52,43
490,42	-9,04
490,53	61,02
490,64	-145,53
490,74	-42,94
490,85	-37,97
490,95	640,44
491,06	11,75
491,16	-77,29
491,27	208,81
491,38	-52,88
491,48	-93,10
491,59	-44,29
491,69	-56,04
491,80	8,14
491,90	-42,48
492,01	-88,59
492,12	0,45
492,22	51,98
492,33	6,33
492,43	-130,62
492,54	-21,24
492,64	7,68
492,75	69,60
492,86	-161,35
492,96	44,29
493,07	120,67
493,17	33,90
493,28	94,91
493,38	114,35
493,49	797,72
493,59	-23,95
493,70	3,62
493,80	148,70
493,91	-52,43
494,01	-73,22
494,12	22,15
494,22	-104,40
494,33	8,59
494,43	56,04
494,54	-156,83
494,64	-13,11
494,75	17,63
494,86	-56,04
494,96	-122,03
495,07	58,30
495,17	121,58
495,28	-22,15
495,38	-36,16
495,49	108,02
495,59	-84,52
495,69	109,83
495,80	-17,17
495,90	-31,64
496,01	-265,76
496,11	-210,16
496,22	12,66
496,32	2,26
496,43	191,63
496,53	20,34
496,64	62,37
496,74	-36,61
496,85	18,98
496,95	169,94
497,06	22,60
497,16	44,29
497,27	75,03
497,37	119,32
497,48	145,53
497,58	74,12
497,68	-6,78
497,79	-49,72
497,89	4,97
498,00	-16,72
498,10	-111,64
498,21	74,12
498,31	73,67
498,42	18,08
498,52	103,50
498,62	85,87
498,73	134,69
498,83	49,26
498,94	-60,56
499,04	-60,56
499,15	1,36
499,25	50,17
499,35	248,58
499,46	-64,63
499,56	-79,55
499,67	-28,93
499,77	-158,64
499,87	28,47
499,98	128,36
500,08	115,25
500,19	-0,90
500,29	48,36
500,39	-167,23
500,50	91,30
500,60	-11,75
500,71	17,17
500,81	-348,92
500,91	-48,81
501,02	99,88
501,12	105,76
501,22	-74,57
501,33	328,58
501,43	-52,88
501,54	141,92
501,64	53,78
501,74	-37,97
501,85	163,16
501,95	-126,55
502,05	136,95
502,16	-35,25
502,26	280,67
502,37	-47,00
502,47	20,34
502,57	103,50
502,68	225,08
502,78	-78,64
502,88	13,56
502,99	96,72
503,09	22,15
503,19	92,20
503,30	-43,39
503,40	44,74
503,50	192,09
503,61	54,69
503,71	-45,65
503,81	-147,34
503,92	91,75
504,02	193,44
504,12	-125,19
504,23	-68,25
504,33	86,33
504,43	-24,86
504,54	-57,85
504,64	104,40
504,74	-89,49
504,84	57,40
504,95	121,58
505,05	-27,12
505,15	-63,28
505,26	-100,34
505,36	70,96
505,46	118,87
505,56	106,21
505,67	-38,87
505,77	129,26
505,87	93,10
505,98	26,67
506,08	-122,93
506,18	-527,90
506,28	164,52
506,39	150,96
506,49	1,81
506,59	118,41
506,70	25,76
506,80	-87,68
506,90	-26,21
507,00	-34,35
507,11	0,90
507,21	1,81
507,31	-10,40
507,41	-140,11
507,52	-112,09
507,62	-178,07
507,72	-369,71
507,82	98,98
507,93	25,31
508,03	171,75
508,13	6,33
508,23	22,60
508,34	96,27
508,44	157,28
508,54	100,79
508,64	-171,75
508,74	36,61
508,85	91,30
508,95	-78,64
509,05	161,80
509,15	259,88
509,26	51,98
509,36	117,96
509,46	-6,78
509,56	5,42
509,66	-22,60
509,77	298,75
509,87	238,64
509,97	153,22
510,07	42,94
510,17	163,16
510,28	-10,40
510,38	189,83
510,48	182,59
510,58	265,30
510,68	257,17
510,78	101,24
510,89	229,60
510,99	204,74
511,09	-275,70
511,19	327,68
511,29	24,41
511,39	109,38
511,50	5,88
511,60	69,60
511,70	124,29
511,80	-14,91
511,90	138,75
512,00	127,00
512,11	206,10
512,21	-25,31
512,31	28,02
512,41	207,90
512,51	1,81
512,61	-198,86
512,71	-141,92
512,82	168,13
512,92	28,02
513,02	-36,61
513,12	91,75
513,22	198,41
513,32	-76,83
513,42	-66,44
513,53	165,87
513,63	-70,51
513,73	230,95
513,83	22,15
513,93	-42,03
514,03	93,10
514,13	0,45
514,23	14,01
514,33	140,11
514,44	51,07
514,54	-76,83
514,64	85,42
514,74	28,93
514,84	-27,12
514,94	27,12
515,04	-195,70
515,14	31,64
515,24	319,09
515,34	29,38
515,44	148,70
515,55	33,45
515,65	258,07
515,75	3,16
515,85	-23,05
515,95	96,72
516,05	166,78
516,15	154,57
516,25	182,14
516,35	-127,45
516,45	119,32
516,55	173,10
516,65	112,99
516,75	-56,50
516,85	249,94
516,95	88,13
517,05	75,93
517,16	102,14
517,26	204,74
517,36	115,25
517,46	124,74
517,56	-1,81
517,66	-70,51
517,76	101,24
517,86	246,32
517,96	-135,14
518,06	142,37
518,16	111,64
518,26	359,31
518,36	141,01
518,46	148,24
518,56	433,89
518,66	362,02
518,76	707,33
518,86	780,09
518,96	766,53
519,06	770,15
519,16	805,85
519,26	837,49
519,36	951,84
519,46	806,31
519,56	790,04
519,66	702,81
519,76	230,95
519,86	335,81
519,96	314,57
520,06	321,35
520,16	356,15
520,26	1443,58
520,36	286,55
520,46	384,17
520,56	211,52
520,66	169,04
520,76	257,17
520,86	400,44
520,96	296,94
521,06	183,05
521,16	108,92
521,26	150,50
521,35	263,95
521,45	266,21
521,55	272,54
521,65	396,37
521,75	202,48
521,85	334,45
521,95	395,02
522,05	399,09
522,15	471,40
522,25	528,80
522,35	851,50
522,45	1159,29
522,55	1454,43
522,65	2028,87
522,75	2817,55
522,85	3271,33
522,94	3739,56
523,04	4006,67
523,14	3735,04
523,24	3379,80
523,34	3142,52
523,44	2657,56
523,54	2064,58
523,64	1467,08
523,74	1092,40
523,84	674,33
523,94	634,11
524,03	513,88
524,13	505,30
524,23	373,32
524,33	201,58
524,43	272,99
524,53	121,13
524,63	64,18
524,73	209,71
524,83	32,09
524,92	-4,07
525,02	7,68
525,12	-1,81
525,22	215,59
525,32	64,18
525,42	3,62
525,52	20,34
525,61	-119,32
525,71	72,77
525,81	9,49
525,91	42,48
526,01	-78,64
526,11	-10,40
526,21	-192,54
526,30	-1,81
526,40	71,86
526,50	53,33
526,60	594,33
526,70	-116,16
526,80	8,14
526,89	44,74
526,99	77,74
527,09	-131,52
527,19	-36,61
527,29	0,45
527,39	186,66
527,48	146,44
527,58	-106,21
527,68	-68,70
527,78	-48,36
527,88	163,61
527,97	-15,82
528,07	35,71
528,17	112,54
528,27	117,06
528,37	36,61
528,46	-94,46
528,56	97,62
528,66	-68,25
528,76	46,55
528,86	-5,42
528,95	-120,22
529,05	123,84
529,15	-106,21
529,25	-27,12
529,35	-221,46
529,44	137,85
529,54	3,16
529,64	-79,09
529,74	-65,08
529,83	78,64
529,93	42,48
530,03	55,14
530,13	-55,14
530,22	-167,23
530,32	3,62
530,42	98,08
530,52	-7,23
530,61	170,39
530,71	130,62
530,81	173,10
530,91	70,96
531,00	-140,56
531,10	-184,85
531,20	-22,15
531,30	149,60
531,39	134,23
531,49	219,66
531,59	235,02
531,69	64,18
531,78	114,80
531,88	30,28
531,98	-151,41
532,07	115,25
532,17	108,92
532,27	186,21
532,37	59,21
532,46	176,27
532,56	74,12
532,66	2,26
532,75	-17,63
532,85	-70,51
532,95	-34,35
533,04	53,78
533,14	89,04
533,24	-187,57
533,34	48,81
533,43	18,98
533,53	42,94
533,63	9,94
533,72	-42,03
533,82	-28,93
533,92	-17,63
534,01	-139,21
534,11	-26,67
534,21	112,99
534,30	29,38
534,40	-120,67
534,50	-8,14
534,59	76,83
534,69	154,57
534,79	-156,38
534,88	98,53
534,98	189,83
535,08	-116,16
535,17	128,36
535,27	-7,23
535,36	11,75
535,46	-176,72
535,56	75,93
535,65	169,94
535,75	15,82
535,85	-157,74
535,94	156,83
536,04	216,94
536,14	34,35
536,23	45,20
536,33	86,78
536,42	-84,07
536,52	-130,17
536,62	-98,08
536,71	39,77
536,81	-7,68
536,90	200,22
537,00	-66,89
537,10	-3,16
537,19	26,21
537,29	-81,81
537,38	49,72
537,48	-54,69
537,58	-137,85
537,67	123,84
537,77	-90,85
537,86	23,50
537,96	706,42
538,06	-34,80
538,15	-13,56
538,25	0,45
538,34	-43,84
538,44	208,81
538,53	-65,53
538,63	189,37
538,73	99,43
538,82	89,49
538,92	78,64
539,01	129,71
539,11	26,67
539,20	205,19
539,30	303,27
539,39	134,69
539,49	398,63
539,59	517,95
539,68	863,71
539,78	931,50
539,87	968,56
539,97	1338,27
540,06	1832,72
540,16	2243,10
540,25	3159,69
540,35	4175,71
540,44	5284,38
540,54	6370,45
540,63	8568,81
540,73	8997,28
540,82	9699,63
540,92	9615,11
541,01	9342,58
541,11	8510,51
541,20	7131,56
541,30	5467,43
541,39	4251,64
541,49	2996,08
541,58	2470,90
541,68	1844,47
541,77	1477,48
541,87	1180,99
541,96	852,41
542,06	970,37
542,15	817,15
542,25	-1537,59
542,34	559,99
542,44	637,72
542,53	565,86
542,63	553,66
542,72	641,79
542,82	490,38
542,91	463,72
543,01	548,69
543,10	351,18
543,20	420,78
543,29	341,23
543,38	426,66
543,48	550,04
543,57	525,64
543,67	504,39
543,76	542,81
543,86	553,66
543,95	648,57
544,05	475,92
544,14	818,06
544,23	868,68
544,33	1113,64
544,42	1378,04
544,52	1874,30
544,61	2420,73
544,71	3010,99
544,80	3708,38
544,89	4244,41
544,99	5016,37
545,08	5280,31
545,18	4925,97
545,27	5393,76
545,36	4597,85
545,46	3585,89
545,55	3166,47
545,65	2488,07
545,74	1780,74
545,84	1272,28
545,93	1152,96
546,02	824,84
546,12	695,12
546,21	832,52
546,30	550,49
546,40	362,02
546,49	442,47
546,59	519,76
546,68	709,13
546,77	625,07
546,87	492,64
546,96	531,96
547,05	426,20
547,15	374,23
547,24	454,23
547,34	246,32
547,43	568,57
547,52	453,77
547,62	512,98
547,71	213,33
547,80	592,07
547,90	408,12
547,99	622,81
548,08	545,97
548,18	409,03
548,27	488,12
548,36	377,84
548,46	359,76
548,55	234,57
548,64	550,04
548,74	347,11
548,83	181,69
548,92	523,38
549,02	336,26
549,11	249,94
549,20	390,50
549,30	431,63
549,39	418,07
549,48	348,92
549,58	292,87
549,67	187,57
549,76	323,61
549,85	188,47
549,95	553,66
550,04	316,83
550,13	410,38
550,23	551,40
550,32	354,79
550,41	351,63
550,50	260,78
550,60	729,02
550,69	489,48
550,78	385,53
550,88	470,04
550,97	272,99
551,06	724,95
551,15	228,24
551,25	529,25
551,34	409,03
551,43	486,31
551,52	333,10
551,62	169,49
551,71	403,15
551,80	463,26
551,89	333,10
551,99	390,95
552,08	350,73
552,17	385,53
552,26	341,69
552,36	432,08
552,45	484,06
552,54	437,95
552,63	728,12
552,73	664,39
552,82	826,64
552,91	593,43
553,00	496,71
553,10	579,87
553,19	1315,67
553,28	990,26
553,37	1262,34
553,46	1314,77
553,56	1515,44
553,65	1758,15
553,74	2145,48
553,83	2595,19
553,92	2736,65
554,02	3121,73
554,11	3301,61
554,20	3407,82
554,29	3926,22
554,38	3495,50
554,48	3795,15
554,57	3636,06
554,66	3730,98
554,75	4037,86
554,84	3865,21
554,94	3989,50
555,03	3679,45
555,12	3574,14
555,21	3696,63
555,30	3592,67
555,39	2989,75
555,49	2835,63
555,58	2486,26
555,67	2262,54
555,76	2033,39
555,85	1671,37
555,94	1433,18
556,03	1315,22
556,13	1131,27
556,22	969,47
556,31	1213,08
556,40	770,60
556,49	792,75
556,58	730,83
556,67	461,91
556,77	581,68
556,86	767,44
556,95	637,27
557,04	771,96
557,13	428,46
557,22	470,04
557,31	467,78
557,40	456,94
557,50	461,00
557,59	560,44
557,68	574,90
557,77	442,47
557,86	308,24
557,95	390,50
558,04	449,71
558,13	489,48
558,22	358,41
558,31	276,15
558,41	385,98
558,50	505,30
558,59	503,04
558,68	333,55
558,77	237,28
558,86	427,11
558,95	-7,68
559,04	288,81
559,13	394,11
559,22	417,62
559,31	461,00
559,40	349,37
559,49	0,00
559,59	2138,70
559,68	340,78
559,77	418,52
559,86	347,56
559,95	407,67
560,04	438,41
560,13	403,15
560,22	120,67
560,31	373,32
560,40	372,87
560,49	316,38
560,58	270,73
560,67	430,27
560,76	421,68
560,85	404,06
560,94	397,28
561,03	361,57
561,12	483,15
561,21	136,95
561,30	-174,46
561,39	305,98
561,48	535,13
561,57	422,14
561,66	307,79
561,75	416,26
561,84	333,10
561,93	375,58
562,02	356,15
562,11	299,65
562,20	278,41
562,29	497,16
562,38	295,59
562,47	151,86
562,56	280,67
562,65	443,83
562,74	436,15
562,83	418,97
562,92	253,10
563,01	145,53
563,10	355,24
563,19	237,28
563,28	190,28
563,37	518,40
563,46	464,62
563,55	398,63
563,64	306,88
563,73	307,34
563,82	372,42
563,91	343,49
564,00	317,73
564,09	434,79
564,18	380,55
564,27	433,89
564,35	451,06
564,44	341,69
564,53	377,84
564,62	306,88
564,71	331,29
564,80	254,91
564,89	341,69
564,98	-13711,28
565,07	223,72
565,16	266,66
565,25	565,86
565,34	2576,66
565,43	1078,39
565,51	443,83
565,60	346,21
565,69	139,21
565,78	389,59
565,87	409,93
565,96	319,54
566,05	190,28
566,14	280,67
566,23	281,57
566,32	228,69
566,40	254,91
566,49	440,67
566,58	190,73
566,67	446,54
566,76	357,05
566,85	370,16
566,94	276,15
567,03	234,57
567,11	318,18
567,20	440,21
567,29	463,72
567,38	311,40
567,47	369,71
567,56	313,66
567,65	389,14
567,73	276,60
567,82	333,10
567,91	466,43
568,00	268,02
568,09	209,71
568,18	232,76
568,27	271,18
568,35	332,19
568,44	266,21
568,53	397,73
568,62	304,62
568,71	373,32
568,80	287,90
568,88	361,12
568,97	169,04
569,06	206,55
569,15	230,50
569,24	354,34
569,32	374,68
569,41	314,12
569,50	330,84
569,59	1670,92
569,68	396,83
569,76	302,82
569,85	323,16
569,94	404,51
570,03	204,74
570,12	263,95
570,20	-29,83
570,29	137,85
570,38	275,70
570,47	144,63
570,56	258,52
570,64	236,38
570,73	431,18
570,82	375,58
570,91	331,74
570,99	119,32
571,08	170,39
571,17	114,35
571,26	204,74
571,34	279,77
571,43	221,46
571,52	297,39
571,61	474,56
571,69	231,41
571,78	210,16
571,87	189,37
571,96	301,46
572,04	357,50
572,13	320,44
572,22	206,55
572,31	158,19
572,39	121,13
572,48	321,35
572,57	229,15
572,66	244,51
572,74	264,85
572,83	355,24
572,92	381,01
573,00	292,87
573,09	339,43
573,18	279,31
573,27	317,73
573,35	211,07
573,44	319,54
573,53	258,98
573,61	305,08
573,70	285,19
573,79	296,94
573,87	145,98
573,96	98,08
574,05	237,28
574,14	385,98
574,22	231,86
574,31	150,96
574,40	204,74
574,48	334,45
574,57	256,26
574,66	244,97
574,74	333,10
574,83	382,36
574,92	200,67
575,00	239,99
575,09	528,35
575,18	211,97
575,26	4,07
575,35	270,28
575,43	228,69
575,52	154,12
575,61	424,40
575,69	213,78
575,78	301,01
575,87	253,10
575,95	296,94
576,04	177,62
576,13	242,71
576,21	326,77
576,30	181,69
576,38	352,99
576,47	391,40
576,56	85,42
576,64	172,65
576,73	458,29
576,82	265,76
576,90	181,69
576,99	283,83
577,07	290,16
577,16	341,69
577,25	218,75
577,33	275,25
577,42	107,57
577,50	184,85
577,59	209,26
577,68	318,64
577,76	141,92
577,85	385,07
577,93	433,89
578,02	230,50
578,10	32,09
578,19	100,79
578,28	235,47
578,36	274,80
578,45	202,03
578,53	302,82
578,62	495,81
578,70	173,55
578,79	392,31
578,88	203,38
578,96	342,14
579,05	242,71
579,13	628,23
579,22	287,45
579,30	380,55
579,39	302,36
579,47	340,78
579,56	166,32
579,64	283,38
579,73	396,37
579,82	108,47
579,90	255,81
579,99	175,36
580,07	359,31
580,16	296,04
580,24	339,43
580,33	350,27
580,41	261,24
580,50	194,35
580,58	262,59
580,67	423,94
580,75	372,87
580,84	277,05
580,92	176,72
581,01	401,80
581,09	333,10
581,18	384,62
581,26	202,03
581,35	308,69
581,43	-41,58
581,52	137,85
581,60	266,66
581,69	312,31
581,77	258,52
581,86	144,18
581,94	214,23
582,02	154,57
582,11	235,47
582,19	181,24
582,28	797,72
582,36	386,88
582,45	482,25
582,53	407,67
582,62	217,40
582,70	322,25
582,79	233,21
582,87	85,87
582,96	92,20
583,04	480,89
583,12	296,94
583,21	363,83
583,29	276,15
583,38	148,70
583,46	373,78
583,55	75,03
583,63	232,31
583,71	213,78
583,80	200,22
583,88	141,47
583,97	18,98
584,05	200,67
584,13	174,91
584,22	235,47
584,30	268,92
584,39	301,01
584,47	424,40
584,55	200,67
584,64	384,17
584,72	235,47
584,81	123,84
584,89	264,40
584,97	273,44
585,06	109,83
585,14	187,11
585,23	276,15
585,31	79,09
585,39	121,13
585,48	288,35
585,56	201,58
585,64	348,92
585,73	103,05
585,81	418,07
585,90	200,22
585,98	362,02
586,06	151,86
586,15	263,50
586,23	184,40
586,31	30,73
586,40	170,39
586,48	213,33
586,56	301,01
586,65	183,50
586,73	96,27
586,81	213,78
586,90	240,90
586,98	29,38
587,06	168,13
587,15	104,86
587,23	506,65
587,31	174,91
587,40	136,04
587,48	207,45
587,56	263,95
587,65	73,67
587,73	388,69
587,81	207,90
587,90	117,96
587,98	191,63
588,06	258,52
588,14	218,75
588,23	218,75
588,31	304,17
588,39	121,13
588,48	89,94
588,56	-20,79
588,64	-98,98
588,72	286,09
588,81	226,43
588,89	54,69
588,97	190,28
589,06	112,99
589,14	191,18
589,22	268,47
589,30	216,04
589,39	164,52
589,47	455,58
589,55	420,33
589,63	357,50
589,72	198,86
589,80	235,93
589,88	215,14
589,96	382,36
590,05	209,26
590,13	300,11
590,21	107,12
590,29	172,20
590,38	403,15
590,46	239,09
590,54	146,44
590,62	125,65
590,71	322,25
590,79	179,43
590,87	225,98
590,95	132,43
591,03	321,35
591,12	269,37
591,20	222,37
591,28	385,07
591,36	68,70
591,44	179,88
591,53	112,99
591,61	235,47
591,69	174,01
591,77	187,57
591,85	249,94
591,94	154,57
592,02	172,65
592,10	95,82
592,18	-39,77
592,26	61,92
592,34	14,91
592,43	227,79
592,51	66,44
592,59	324,06
592,67	183,50
592,75	190,73
592,84	225,98
592,92	298,30
593,00	270,28
593,08	241,80
593,16	136,04
593,24	172,20
593,32	159,54
593,41	263,95
593,49	126,55
593,57	228,69
593,65	202,03
593,73	132,88
593,81	192,99
593,89	73,67
593,98	103,50
594,06	78,64
594,14	173,10
594,22	207,00
594,30	-28,47
594,38	122,03
594,46	-64,18
594,54	202,48
594,62	60,56
594,71	163,61
594,79	261,69
594,87	110,28
594,95	169,04
595,03	331,74
595,11	24,86
595,19	146,89
595,27	303,72
595,35	271,18
595,43	136,49
595,52	303,72
595,60	181,69
595,68	402,70
595,76	282,03
595,84	155,02
595,92	46,55
596,00	343,04
596,08	279,31
596,16	381,46
596,24	-54,69
596,32	275,25
596,40	103,50
596,48	167,68
596,56	376,94
596,64	257,17
596,73	1172,85
596,81	151,86
596,89	262,14
596,97	105,31
597,05	190,73
597,13	144,63
597,21	171,29
597,29	221,01
597,37	150,96
597,45	112,09
597,53	136,95
597,61	237,73
597,69	319,99
597,77	330,39
597,85	-13,11
597,93	195,25
598,01	207,45
598,09	94,01
598,17	137,40
598,25	148,24
598,33	123,39
598,41	236,83
598,49	81,35
598,57	240,90
598,65	88,13
598,73	375,58
598,81	108,02
598,89	344,40
598,97	145,98
599,05	197,96
599,13	37,51
599,21	432,08
599,29	141,01
599,37	252,65
599,45	176,72
599,53	101,69
599,61	194,80
599,69	292,42
599,77	168,58
599,85	274,80
599,93	248,58
600,00	195,25
600,08	-71,41
600,16	226,43
600,24	70,05
600,32	320,44
600,40	370,61
600,48	218,75
600,56	-58,30
600,64	122,03
600,72	121,13
600,80	-0,45
600,88	-129,71
600,96	253,55
601,04	169,94
601,12	181,69
601,19	191,63
601,27	173,55
601,35	102,60
601,43	353,89
601,51	140,11
601,59	34,35
601,67	199,77
601,75	17,17
601,83	186,66
601,91	277,51
601,98	91,30
602,06	29,83
602,14	165,42
602,22	-12,66
602,30	-232,31
602,38	174,91
602,46	217,85
602,54	165,42
602,61	56,04
602,69	133,78
602,77	115,25
602,85	74,57
602,93	161,80
603,01	263,04
603,09	185,76
603,17	51,52
603,24	203,38
603,32	174,91
603,40	193,89
603,48	-18,53
603,56	119,77
603,64	53,78
603,71	71,41
603,79	-1,36
603,87	45,65
603,95	329,03
604,03	189,83
604,11	-34,35
604,18	183,50
604,26	188,02
604,34	177,17
604,42	24,41
604,50	216,49
604,57	-65,08
604,65	91,75
604,73	123,39
604,81	-2526,49
604,89	65,53
604,96	175,81
605,04	249,94
605,12	158,19
605,20	163,61
605,28	157,28
605,35	80,90
605,43	183,50
605,51	161,80
605,59	284,29
605,67	336,71
605,74	117,96
605,82	125,65
605,90	152,76
605,98	261,24
606,05	142,82
606,13	188,02
606,21	190,28
606,29	110,28
606,36	129,26
606,44	276,15
606,52	225,53
606,60	103,05
606,67	149,15
606,75	127,45
606,83	145,98
606,91	158,64
606,98	54,24
607,06	-30,28
607,14	9,49
607,22	92,65
607,29	237,28
607,37	122,93
607,45	30,73
607,52	223,27
607,60	202,93
607,68	85,87
607,76	170,84
607,83	129,71
607,91	-10,40
607,99	213,78
608,06	172,65
608,14	217,40
608,22	64,18
608,30	131,07
608,37	242,25
608,45	223,27
608,53	184,40
608,60	170,84
608,68	27,12
608,76	-90,39
608,83	132,43
608,91	84,52
608,99	112,09
609,06	227,34
609,14	134,69
609,22	56,95
609,29	152,76
609,37	51,52
609,45	143,73
609,52	108,02
609,60	147,79
609,68	26,67
609,75	110,28
609,83	137,85
609,91	193,89
609,98	53,78
610,06	97,17
610,13	219,66
610,21	9,94
610,29	89,49
610,36	-99,43
610,44	-15,37
610,52	142,37
610,59	192,54
610,67	200,22
610,74	94,01
610,82	62,82
610,90	125,65
610,97	137,40
611,05	268,47
611,13	46,10
611,20	149,15
611,28	193,89
611,35	-86,78
611,43	294,23
611,51	153,22
611,58	184,40
611,66	-48,36
611,73	158,19
611,81	-36,16
611,88	134,69
611,96	147,34
612,04	80,90
612,11	133,33
612,19	112,54
612,26	86,33
612,34	100,34
612,41	91,75
612,49	97,17
612,57	-28,02
612,64	167,68
612,72	117,51
612,79	100,79
612,87	30,73
612,94	78,64
613,02	49,72
613,09	60,56
613,17	51,98
613,24	31,19
613,32	54,69
613,40	94,46
613,47	38,87
613,55	34,35
613,62	33,90
613,70	142,82
613,77	28,47
613,85	-14,01
613,92	228,24
614,00	57,85
614,07	171,29
614,15	102,14
614,22	229,15
614,30	87,23
614,37	95,36
614,45	133,33
614,52	55,59
614,60	12,66
614,67	119,77
614,75	174,46
614,82	321,35
614,90	97,62
614,97	122,93
615,05	45,20
615,12	160,90
615,20	289,71
615,27	129,26
615,34	106,66
615,42	296,94
615,49	143,27
615,57	59,66
615,64	136,49
615,72	41,58
615,79	147,34
615,87	-0,45
615,94	14,01
616,02	158,64
616,09	247,68
616,16	25,31
616,24	220,56
616,31	188,02
616,39	303,27
616,46	-87,68
616,54	-2,71
616,61	61,92
616,68	120,67
616,76	58,76
616,83	9,94
616,91	15,82
616,98	-12,20
617,06	14,91
617,13	11,30
617,20	205,19
617,28	116,16
617,35	124,74
617,43	183,95
617,50	40,22
617,57	237,28
>>>>>End Processed Spectral Data<<<<<
