SpectraSuite Datei
++++++++++++++++++++++++++++++++++++
Datum: Wed Apr 14 16:24:00 CEST 2021
Benutzer: Student
Dark-Spektrum vorhanden: Ja
Referenz-Spektrum vorhanden: Nein
Zahl der probierten Teilspektren: 1
Spektrometer: USB2+H04734
Integrationszeit (usec): 65000000 (USB2+H04734)
Spektren Durchschnitt berechnet: 5 (USB2+H04734)
Boxcar Glättung: 0 (USB2+H04734)
Dunkelstromkorrektur: Nein (USB2+H04734)
Puls/Lampe aktiviert: Nein (USB2+H04734)
Correct for Detector Non-linearity: Nein (USB2+H04734)
Streulichtkorrektur: Nein (USB2+H04734)
Anzahl Pixel in verarbeitetem Spektrum: 2048
>>>>>Begin Processed Spectral Data<<<<<
418,45	3,62
418,57	3,62
418,69	3,62
418,80	-65,99
418,92	-62,37
419,04	196,60
419,16	91,30
419,28	-34,80
419,40	52,43
419,52	136,49
419,64	224,63
419,75	56,95
419,87	-94,01
419,99	-88,59
420,11	-148,24
420,23	-91,75
420,35	100,34
420,47	-120,67
420,58	21,24
420,70	-25,76
420,82	-34,35
420,94	122,03
421,06	-30,73
421,18	-115,70
421,29	-83,16
421,41	53,33
421,53	-6,78
421,65	-162,71
421,77	-87,23
421,89	77,29
422,00	-128,36
422,12	20,34
422,24	86,33
422,36	-72,31
422,48	-3,16
422,59	-72,31
422,71	-42,48
422,83	-32,99
422,95	52,43
423,07	-23,95
423,18	131,07
423,30	220,11
423,42	-9,49
423,54	119,32
423,66	9,04
423,77	162,26
423,89	159,09
424,01	43,84
424,13	23,05
424,25	107,57
424,36	14,46
424,48	-52,88
424,60	-19,43
424,72	-210,16
424,84	122,03
424,95	-35,25
425,07	27,12
425,19	120,67
425,31	64,63
425,42	-59,66
425,54	-80,45
425,66	24,86
425,78	-60,11
425,89	-44,74
426,01	-44,74
426,13	-107,57
426,25	5,42
426,36	-16,27
426,48	-177,17
426,60	-30,73
426,72	24,41
426,83	-31,64
426,95	144,18
427,07	11,30
427,19	-84,52
427,30	182,14
427,42	115,70
427,54	-37,06
427,66	-0,00
427,77	-158,19
427,89	42,03
428,01	67,34
428,12	17,17
428,24	24,86
428,36	-143,27
428,48	-50,62
428,59	-25,31
428,71	-144,18
428,83	19,89
428,94	90,39
429,06	59,66
429,18	98,08
429,30	98,98
429,41	47,91
429,53	-7,23
429,65	-190,28
429,76	77,74
429,88	0,90
430,00	-79,09
430,11	-27,57
430,23	-32,99
430,35	-98,53
430,47	-128,81
430,58	141,47
430,70	-54,69
430,82	7,68
430,93	51,07
431,05	73,67
431,17	-122,03
431,28	7,68
431,40	-75,93
431,52	71,41
431,63	88,13
431,75	-156,38
431,87	-89,94
431,98	88,13
432,10	82,26
432,22	15,82
432,33	-94,01
432,45	141,01
432,56	-97,62
432,68	24,41
432,80	-201,12
432,91	-187,11
433,03	139,21
433,15	46,55
433,26	-62,37
433,38	-28,47
433,50	-10,40
433,61	-179,43
433,73	-4,52
433,84	21,24
433,96	-51,52
434,08	-37,97
434,19	98,98
434,31	-143,27
434,43	35,71
434,54	-84,07
434,66	-43,39
434,77	23,05
434,89	-260,78
435,01	-89,94
435,12	34,80
435,24	88,59
435,35	-135,59
435,47	133,78
435,59	75,48
435,70	127,00
435,82	110,28
435,93	-17,17
436,05	-18,98
436,17	-24,41
436,28	75,93
436,40	37,06
436,51	-19,89
436,63	-41,58
436,74	41,13
436,86	-141,47
436,98	90,85
437,09	0,90
437,21	234,57
437,32	-29,38
437,44	149,15
437,55	122,48
437,67	-725,40
437,79	-131,97
437,90	132,43
438,02	-45,20
438,13	41,58
438,25	-20,34
438,36	84,07
438,48	-2,26
438,59	71,86
438,71	-250,39
438,83	-71,86
438,94	-186,21
439,06	205,19
439,17	-28,93
439,29	-79,55
439,40	-117,51
439,52	84,97
439,63	-90,39
439,75	-66,44
439,86	-55,59
439,98	119,32
440,09	28,02
440,21	-33,45
440,32	185,76
440,44	-84,52
440,55	-93,56
440,67	-117,96
440,78	-4,52
440,90	13,11
441,01	-145,08
441,13	96,72
441,24	246,32
441,36	-110,28
441,47	161,80
441,59	145,53
441,70	3,62
441,82	20,79
441,93	-21,24
442,05	48,36
442,16	141,01
442,28	-169,49
442,39	-108,47
442,51	102,60
442,62	1,81
442,74	-97,62
442,85	39,32
442,97	272,99
443,08	-270,28
443,20	-141,01
443,31	30,73
443,43	-180,33
443,54	61,92
443,66	-64,18
443,77	-218,30
443,88	-7,68
444,00	52,43
444,11	49,72
444,23	81,35
444,34	3,16
444,46	-98,53
444,57	-227,79
444,69	173,55
444,80	250,39
444,91	233,21
445,03	-157,28
445,14	-0,90
445,26	-4,52
445,37	-39,32
445,49	138,75
445,60	189,83
445,71	-3228,84
445,83	18,98
445,94	-22,60
446,06	-42,03
446,17	209,71
446,29	-32,09
446,40	17,63
446,51	45,20
446,63	-92,65
446,74	51,98
446,86	19,43
446,97	-87,68
447,08	97,17
447,20	-20,34
447,31	120,67
447,43	-56,50
447,54	165,87
447,65	-107,12
447,77	-48,81
447,88	115,70
448,00	-64,18
448,11	-39,77
448,22	73,22
448,34	134,23
448,45	34,35
448,56	36,61
448,68	254,46
448,79	32,99
448,90	-180,79
449,02	105,76
449,13	56,04
449,25	-75,48
449,36	106,21
449,47	-21,69
449,59	-115,70
449,70	73,67
449,81	51,07
449,93	249,94
450,04	39,77
450,15	70,96
450,27	-70,51
450,38	50,62
450,49	-10,40
450,61	70,51
450,72	90,85
450,83	128,81
450,95	180,79
451,06	-14,01
451,17	-237,73
451,29	75,03
451,40	-59,21
451,51	-71,86
451,63	57,40
451,74	240,90
451,85	91,75
451,97	301,91
452,08	48,81
452,19	-47,91
452,31	104,86
452,42	-211,97
452,53	-31,64
452,65	-68,25
452,76	-8,59
452,87	134,23
452,98	32,09
453,10	-62,37
453,21	21,24
453,32	-43,39
453,44	84,07
453,55	2,71
453,66	96,27
453,77	102,60
453,89	60,11
454,00	-58,30
454,11	215,59
454,23	77,29
454,34	71,41
454,45	53,33
454,56	-53,78
454,68	109,83
454,79	-62,37
454,90	39,77
455,01	-42,48
455,13	76,83
455,24	-51,07
455,35	-9,49
455,46	-53,78
455,58	25,76
455,69	100,79
455,80	-282,48
455,91	-72,77
456,03	-127,91
456,14	233,67
456,25	73,67
456,36	-77,29
456,48	95,36
456,59	53,78
456,70	7,68
456,81	-12,66
456,92	41,58
457,04	8,14
457,15	14,91
457,26	-11,75
457,37	6,33
457,49	136,49
457,60	-80,00
457,71	-18,08
457,82	363,83
457,93	136,49
458,05	-67,34
458,16	-16,27
458,27	-2,26
458,38	35,25
458,49	159,54
458,61	13,56
458,72	61,92
458,83	302,82
458,94	93,56
459,05	109,38
459,17	395,47
459,28	63,28
459,39	-149,60
459,50	-108,02
459,61	110,73
459,72	-138,75
459,84	-48,36
459,95	7,23
460,06	74,57
460,17	150,50
460,28	104,40
460,39	-66,89
460,51	-19,43
460,62	28,02
460,73	95,82
460,84	-33,90
460,95	-268,02
461,06	88,13
461,18	-31,19
461,29	175,36
461,40	-100,34
461,51	200,22
461,62	143,27
461,73	-22,15
461,84	-184,40
461,96	-5,42
462,07	-158,19
462,18	32,09
462,29	108,02
462,40	-21,24
462,51	86,33
462,62	136,95
462,73	33,45
462,85	199,77
462,96	160,00
463,07	137,40
463,18	-175,36
463,29	80,45
463,40	135,14
463,51	-107,57
463,62	-9,04
463,73	-25,31
463,85	-112,09
463,96	79,09
464,07	-91,75
464,18	382,36
464,29	60,11
464,40	-62,82
464,51	112,99
464,62	-65,99
464,73	61,92
464,84	272,54
464,95	-6,33
465,06	74,57
465,18	188,02
465,29	48,81
465,40	56,04
465,51	59,21
465,62	-60,11
465,73	10,40
465,84	-178,98
465,95	-113,90
466,06	51,98
466,17	-112,54
466,28	-168,13
466,39	209,71
466,50	-10,40
466,61	50,17
466,72	-32,09
466,83	119,77
466,95	-88,59
467,06	42,94
467,17	-18,53
467,28	-10,85
467,39	69,15
467,50	6,78
467,61	-8,59
467,72	66,44
467,83	116,16
467,94	-81,35
468,05	56,95
468,16	179,43
468,27	27,12
468,38	152,31
468,49	31,64
468,60	18,08
468,71	-73,22
468,82	-8,59
468,93	-3,16
469,04	-87,23
469,15	23,50
469,26	55,59
469,37	-132,43
469,48	117,06
469,59	-126,55
469,70	-179,43
469,81	-56,04
469,92	-230,95
470,03	115,70
470,14	-74,57
470,25	-110,28
470,36	-90,39
470,47	-5,88
470,58	-46,10
470,69	166,32
470,80	23,05
470,91	101,69
471,02	-3,16
471,13	72,77
471,24	7,68
471,35	6,33
471,46	-68,70
471,56	88,59
471,67	105,31
471,78	53,33
471,89	116,61
472,00	7,68
472,11	4,97
472,22	226,43
472,33	-85,42
472,44	65,99
472,55	155,48
472,66	-277,51
472,77	-63,28
472,88	65,99
472,99	83,16
473,10	-46,10
473,21	-32,54
473,32	-32,54
473,42	-23,95
473,53	-89,04
473,64	-91,75
473,75	-34,80
473,86	-39,32
473,97	165,87
474,08	337,62
474,19	122,03
474,30	-69,60
474,41	174,46
474,52	-101,24
474,62	-145,08
474,73	-148,70
474,84	80,00
474,95	-28,47
475,06	9,04
475,17	-70,96
475,28	-21,69
475,39	-119,77
475,50	-35,25
475,60	15,82
475,71	-162,26
475,82	-70,96
475,93	-90,85
476,04	-38,42
476,15	-237,73
476,26	45,20
476,37	24,86
476,47	28,93
476,58	-29,38
476,69	-5,42
476,80	3,16
476,91	166,32
477,02	5,42
477,13	-56,95
477,23	68,25
477,34	-14,46
477,45	-11,30
477,56	-6,33
477,67	70,96
477,78	-61,02
477,89	100,79
477,99	38,42
478,10	-176,72
478,21	47,91
478,32	71,41
478,43	-222,37
478,54	-61,02
478,64	32,99
478,75	42,94
478,86	-128,36
478,97	81,81
479,08	-20,34
479,18	171,75
479,29	-19,43
479,40	-4,52
479,51	-4,52
479,62	-157,74
479,72	1,36
479,83	161,80
479,94	10,85
480,05	176,72
480,16	8,59
480,26	152,76
480,37	-22,60
480,48	-41,13
480,59	56,04
480,70	-19,89
480,80	91,30
480,91	171,29
481,02	24,41
481,13	-28,02
481,24	-80,00
481,34	-148,70
481,45	-227,34
481,56	-15,82
481,67	-155,93
481,77	18,98
481,88	51,07
481,99	47,00
482,10	111,18
482,20	178,98
482,31	-5,42
482,42	65,08
482,53	-19,43
482,63	-95,36
482,74	132,88
482,85	120,67
482,96	3,16
483,06	-49,72
483,17	-17,63
483,28	231,86
483,39	-60,11
483,49	80,45
483,60	-124,29
483,71	133,33
483,81	-69,60
483,92	110,73
484,03	-61,47
484,14	-192,99
484,24	138,30
484,35	-45,65
484,46	166,78
484,57	60,11
484,67	-32,54
484,78	-19,43
484,89	-123,84
484,99	21,69
485,10	-67,79
485,21	-50,62
485,31	27,57
485,42	38,87
485,53	-10,40
485,63	34,35
485,74	-206,10
485,85	102,60
485,96	-1974,64
486,06	3,16
486,17	-51,52
486,28	-24,86
486,38	-35,25
486,49	5,88
486,60	-105,76
486,70	-188,47
486,81	16,72
486,92	1,36
487,02	-61,02
487,13	18,53
487,24	156,83
487,34	183,95
487,45	-72,31
487,56	34,35
487,66	-15,82
487,77	-63,73
487,87	-21,69
487,98	-89,94
488,09	-52,43
488,19	-134,69
488,30	-98,98
488,41	-61,47
488,51	23,50
488,62	-10,40
488,73	36,61
488,83	62,37
488,94	-25,31
489,04	-141,01
489,15	-112,09
489,26	-22,60
489,36	94,91
489,47	39,32
489,58	71,86
489,68	73,22
489,79	-9,49
489,89	-139,66
490,00	-21,24
490,11	66,89
490,21	49,72
490,32	-46,55
490,42	-1,81
490,53	126,55
490,64	-135,59
490,74	-4,07
490,85	-45,65
490,95	597,95
491,06	-23,95
491,16	-1,81
491,27	168,13
491,38	-11,30
491,48	398,18
491,59	-17,17
491,69	42,94
491,80	-29,83
491,90	12,66
492,01	-115,25
492,12	86,33
492,22	7,68
492,33	0,90
492,43	-136,49
492,54	-48,81
492,64	-11,30
492,75	36,61
492,86	-81,35
492,96	81,81
493,07	117,51
493,17	48,81
493,28	42,03
493,38	179,43
493,49	509,37
493,59	33,45
493,70	72,77
493,80	103,95
493,91	-37,51
494,01	14,01
494,12	-1,36
494,22	-167,23
494,33	-50,17
494,43	-42,03
494,54	-176,72
494,64	-6,78
494,75	83,61
494,86	-65,99
494,96	-84,07
495,07	-35,25
495,17	43,39
495,28	-28,02
495,38	20,79
495,49	118,87
495,59	-127,91
495,69	135,14
495,80	-32,99
495,90	21,24
496,01	-194,80
496,11	-104,40
496,22	-71,86
496,32	8,59
496,43	34,80
496,53	-51,52
496,64	-22,15
496,74	-161,80
496,85	52,43
496,95	222,82
497,06	21,69
497,16	16,72
497,27	103,05
497,37	135,14
497,48	279,77
497,58	36,16
497,68	-10,40
497,79	25,31
497,89	0,45
498,00	-52,88
498,10	-145,98
498,21	111,18
498,31	77,29
498,42	-22,15
498,52	95,82
498,62	64,18
498,73	94,01
498,83	176,27
498,94	-103,50
499,04	-130,62
499,15	73,67
499,25	63,28
499,35	174,46
499,46	-23,05
499,56	-6,78
499,67	-67,79
499,77	-197,51
499,87	74,12
499,98	120,22
500,08	88,13
500,19	-35,71
500,29	70,51
500,39	-980,31
500,50	54,69
500,60	37,06
500,71	12,66
500,81	-234,12
500,91	5,42
501,02	34,35
501,12	78,19
501,22	-86,78
501,33	281,57
501,43	-140,11
501,54	251,29
501,64	58,76
501,74	-78,64
501,85	19,89
501,95	-108,47
502,05	157,28
502,16	-56,04
502,26	277,51
502,37	-36,16
502,47	6,78
502,57	146,44
502,68	146,44
502,78	5,88
502,88	-2,26
502,99	84,07
503,09	34,35
503,19	83,16
503,30	-13,11
503,40	42,94
503,50	156,38
503,61	180,33
503,71	47,00
503,81	-131,52
503,92	64,63
504,02	228,24
504,12	18,53
504,23	13,56
504,33	56,95
504,43	-46,55
504,54	33,45
504,64	49,72
504,74	-38,87
504,84	28,47
504,95	50,62
505,05	-60,56
505,15	-66,89
505,26	-17,17
505,36	136,04
505,46	73,67
505,56	56,50
505,67	17,17
505,77	132,88
505,87	123,84
505,98	48,36
506,08	-78,19
506,18	-289,71
506,28	140,56
506,39	138,30
506,49	19,89
506,59	48,81
506,70	2,71
506,80	-26,21
506,90	39,77
507,00	57,40
507,11	4,52
507,21	67,79
507,31	22,60
507,41	-133,33
507,52	-74,57
507,62	-32,54
507,72	-841,56
507,82	46,10
507,93	68,25
508,03	165,42
508,13	89,49
508,23	-47,46
508,34	178,07
508,44	130,62
508,54	70,96
508,64	-82,26
508,74	75,48
508,85	82,71
508,95	-82,71
509,05	146,89
509,15	225,08
509,26	101,24
509,36	169,49
509,46	-71,41
509,56	42,03
509,66	-2,71
509,77	320,90
509,87	241,35
509,97	151,86
510,07	87,23
510,17	281,12
510,28	-84,97
510,38	294,23
510,48	175,81
510,58	337,62
510,68	141,47
510,78	9,49
510,89	148,70
510,99	234,57
511,09	-238,19
511,19	329,93
511,29	58,76
511,39	115,25
511,50	-41,13
511,60	68,25
511,70	151,86
511,80	-75,93
511,90	72,31
512,00	89,04
512,11	221,92
512,21	13,56
512,31	120,22
512,41	180,79
512,51	75,93
512,61	-260,33
512,71	58,30
512,82	223,72
512,92	54,24
513,02	105,76
513,12	105,76
513,22	168,13
513,32	-70,96
513,42	-103,50
513,53	142,37
513,63	-158,64
513,73	334,45
513,83	-61,02
513,93	26,67
514,03	202,03
514,13	-37,97
514,23	24,86
514,33	54,24
514,44	80,00
514,54	-51,52
514,64	208,81
514,74	95,82
514,84	10,40
514,94	93,10
515,04	-227,34
515,14	165,42
515,24	342,14
515,34	55,59
515,44	131,97
515,55	48,81
515,65	189,83
515,75	74,57
515,85	90,39
515,95	69,60
516,05	200,22
516,15	146,89
516,25	202,03
516,35	-125,19
516,45	122,93
516,55	216,49
516,65	183,95
516,75	-64,63
516,85	181,24
516,95	84,52
517,05	167,68
517,16	116,16
517,26	31,19
517,36	112,09
517,46	134,69
517,56	100,79
517,66	25,76
517,76	174,91
517,86	289,71
517,96	54,69
518,06	254,00
518,16	330,39
518,26	720,43
518,36	715,01
518,46	915,68
518,56	1472,50
518,66	1913,17
518,76	2656,65
518,86	3293,47
518,96	3516,29
519,06	3844,42
519,16	4164,86
519,26	3991,31
519,36	3893,68
519,46	3310,65
519,56	2827,04
519,66	2205,59
519,76	1192,29
519,86	1047,66
519,96	779,64
520,06	600,66
520,16	713,20
520,26	2716,76
520,36	333,10
520,46	290,16
520,56	342,59
520,66	222,37
520,76	306,88
520,86	415,36
520,96	356,15
521,06	272,99
521,16	190,73
521,26	180,79
521,35	329,03
521,45	317,73
521,55	317,28
521,65	463,72
521,75	215,59
521,85	322,25
521,95	487,22
522,05	419,88
522,15	573,09
522,25	536,94
522,35	732,64
522,45	1190,03
522,55	1428,66
522,65	2018,93
522,75	2803,54
522,85	3323,75
522,94	3896,85
523,04	4149,50
523,14	4056,39
523,24	3552,00
523,34	3291,21
523,44	2780,94
523,54	2213,73
523,64	1580,07
523,74	1179,18
523,84	800,43
523,94	756,59
524,03	499,87
524,13	533,32
524,23	480,89
524,33	171,29
524,43	329,93
524,53	101,24
524,63	109,83
524,73	224,63
524,83	21,24
524,92	-14,91
525,02	28,93
525,12	-103,05
525,22	178,07
525,32	123,39
525,42	-18,98
525,52	-10,40
525,61	-95,36
525,71	79,09
525,81	23,50
525,91	118,41
526,01	65,99
526,11	-118,41
526,21	-127,00
526,30	-17,63
526,40	163,61
526,50	128,81
526,60	120,22
526,70	-90,85
526,80	133,78
526,89	49,72
526,99	34,80
527,09	-65,99
527,19	-465,07
527,29	55,59
527,39	152,76
527,48	187,57
527,58	-21,24
527,68	-90,85
527,78	24,41
527,88	238,19
527,97	59,21
528,07	113,44
528,17	-60,56
528,27	147,79
528,37	66,89
528,46	-90,85
528,56	183,05
528,66	20,79
528,76	-20,34
528,86	38,87
528,95	-119,77
529,05	191,18
529,15	111,18
529,25	-198,41
529,35	-205,19
529,44	93,10
529,54	97,62
529,64	-34,35
529,74	-4,07
529,83	105,76
529,93	23,95
530,03	146,89
530,13	-53,33
530,22	-22,60
530,32	-12,66
530,42	82,71
530,52	44,74
530,61	127,45
530,71	153,67
530,81	201,12
530,91	253,55
531,00	31,19
531,10	-21,24
531,20	183,95
531,30	471,85
531,39	794,56
531,49	1429,11
531,59	2281,97
531,69	3017,77
531,78	3509,96
531,88	3753,12
531,98	3534,82
532,07	3085,57
532,17	2724,00
532,27	2018,93
532,37	955,00
532,46	450,61
532,56	269,82
532,66	75,03
532,75	24,41
532,85	-37,97
532,95	37,97
533,04	138,30
533,14	-6,33
533,24	-145,53
533,34	-52,88
533,43	-27,12
533,53	25,76
533,63	28,47
533,72	27,57
533,82	-17,63
533,92	22,60
534,01	-157,74
534,11	64,63
534,21	97,17
534,30	113,44
534,40	-118,87
534,50	-33,45
534,59	91,75
534,69	196,60
534,79	-99,43
534,88	50,62
534,98	245,42
535,08	-76,83
535,17	327,22
535,27	21,69
535,36	38,87
535,46	-142,37
535,56	130,62
535,65	189,83
535,75	59,21
535,85	-145,08
535,94	162,71
536,04	117,51
536,14	58,30
536,23	-12,66
536,33	103,95
536,42	-84,97
536,52	-60,11
536,62	-70,05
536,71	19,43
536,81	34,80
536,90	231,41
537,00	-97,17
537,10	-5,88
537,19	74,12
537,29	-39,32
537,38	126,10
537,48	-749,36
537,58	-104,40
537,67	70,05
537,77	-37,06
537,86	-14,46
537,96	824,84
538,06	-87,68
538,15	-50,62
538,25	-50,62
538,34	-104,86
538,44	255,36
538,53	10,85
538,63	120,22
538,73	187,11
538,82	54,69
538,92	51,98
539,01	160,90
539,11	36,16
539,20	287,90
539,30	212,88
539,39	216,49
539,49	530,61
539,59	543,26
539,68	1135,34
539,78	1049,01
539,87	1206,75
539,97	1627,98
540,06	2074,07
540,16	2517,45
540,25	3485,11
540,35	4706,32
540,44	5923,01
540,54	7198,91
540,63	9753,42
540,73	10360,86
540,82	11214,62
540,92	11450,09
541,01	11068,18
541,11	10246,96
541,20	8534,46
541,30	6643,44
541,39	5329,58
541,49	3818,66
541,58	3185,45
541,68	2564,45
541,77	2060,06
541,87	1581,43
541,96	1226,18
542,06	1334,65
542,15	1290,81
542,25	-1015,57
542,34	1004,27
542,44	984,38
542,53	1052,18
542,63	1061,22
542,72	1091,95
542,82	928,34
542,91	867,32
543,01	979,86
543,10	877,27
543,20	912,97
543,29	866,87
543,38	898,06
543,48	1137,15
543,57	1195,00
543,67	1239,29
543,76	1342,34
543,86	1686,74
543,95	2288,75
544,05	2667,95
544,14	3588,61
544,23	4464,97
544,33	6158,48
544,42	8458,08
544,52	11191,57
544,61	14622,89
544,71	19046,28
544,80	23071,94
544,89	27860,06
544,99	31180,20
545,08	31595,55
545,18	32244,12
545,27	29417,08
545,36	26499,64
545,46	22938,61
545,55	18733,07
545,65	14165,96
545,74	9821,21
545,84	6784,91
545,93	5283,93
546,02	3843,51
546,12	3049,41
546,21	2187,51
546,30	1781,20
546,40	1457,59
546,49	1117,26
546,59	1148,90
546,68	1316,58
546,77	1183,70
546,87	960,43
546,96	1237,03
547,05	956,36
547,15	927,43
547,24	834,78
547,34	711,85
547,43	1041,33
547,52	1023,25
547,62	995,68
547,71	727,21
547,80	1046,30
547,90	898,06
547,99	1081,55
548,08	970,82
548,18	836,59
548,27	869,58
548,36	849,70
548,46	680,21
548,55	732,64
548,64	940,99
548,74	643,15
548,83	557,27
548,92	941,90
549,02	591,62
549,11	631,85
549,20	886,30
549,30	776,02
549,39	868,68
549,48	791,84
549,58	668,46
549,67	684,73
549,76	795,91
549,85	588,91
549,95	809,47
550,04	735,35
550,13	790,94
550,23	918,39
550,32	606,09
550,41	777,83
550,50	679,30
550,60	1100,99
550,69	884,04
550,78	688,34
550,88	966,75
550,97	646,76
551,06	1116,35
551,15	416,71
551,25	908,45
551,34	760,66
551,43	876,81
551,52	726,31
551,62	552,75
551,71	804,95
551,80	947,32
551,89	736,25
551,99	801,79
552,08	770,60
552,17	820,32
552,26	814,89
552,36	830,26
552,45	880,88
552,54	880,43
552,63	1119,07
552,73	1179,18
552,82	1404,26
552,91	925,17
553,00	977,60
553,10	1031,84
553,19	1451,26
553,28	1432,73
553,37	1915,43
553,46	1816,45
553,56	2103,00
553,65	2464,12
553,74	2946,82
553,83	3539,79
553,92	3570,98
554,02	3777,98
554,11	4434,23
554,20	4623,61
554,29	5198,51
554,38	4735,69
554,48	5052,07
554,57	4852,30
554,66	4979,30
554,75	5249,13
554,84	5009,59
554,94	5338,62
555,03	5023,60
555,12	4897,50
555,21	4875,35
555,30	4968,00
555,39	4108,37
555,49	3959,22
555,58	3620,70
555,67	3283,08
555,76	2957,21
555,85	2357,90
555,94	1980,51
556,03	1967,86
556,13	1731,48
556,22	1506,85
556,31	1820,07
556,40	1199,52
556,49	1301,66
556,58	1177,37
556,67	985,28
556,77	1022,35
556,86	1269,57
556,95	1016,02
557,04	1223,47
557,13	926,53
557,22	953,20
557,31	805,40
557,40	875,91
557,50	846,53
557,59	941,90
557,68	1036,81
557,77	781,45
557,86	756,14
557,95	809,02
558,04	804,50
558,13	950,48
558,22	733,99
558,31	673,88
558,41	761,11
558,50	824,39
558,59	1040,42
558,68	699,64
558,77	619,64
558,86	799,98
558,95	483,15
559,04	697,38
559,13	720,89
559,22	749,36
559,31	800,43
559,40	888,11
559,49	0,00
559,59	2173,95
559,68	657,61
559,77	910,71
559,86	795,46
559,95	782,35
560,04	799,98
560,13	840,66
560,22	576,26
560,31	674,33
560,40	1726,96
560,49	608,35
560,58	685,63
560,67	804,50
560,76	635,92
560,85	784,16
560,94	682,02
561,03	706,87
561,12	860,09
561,21	423,04
561,30	96,27
561,39	691,96
561,48	969,47
561,57	755,69
561,66	646,31
561,75	942,35
561,84	831,16
561,93	675,69
562,02	762,92
562,11	571,28
562,20	537,84
562,29	855,57
562,38	636,82
562,47	507,56
562,56	677,04
562,65	743,03
562,74	778,28
562,83	771,96
562,92	610,15
563,01	555,47
563,10	648,12
563,19	671,62
563,28	611,96
563,37	877,72
563,46	782,35
563,55	814,44
563,64	796,82
563,73	561,79
563,82	631,85
563,91	875,91
564,00	804,50
564,09	761,11
564,18	787,32
564,27	740,32
564,35	748,00
564,44	712,75
564,53	866,42
564,62	790,49
564,71	637,27
564,80	682,02
564,89	733,99
564,98	0,00
565,07	2463,21
565,16	708,68
565,25	742,58
565,34	-7353,03
565,43	719,08
565,51	806,31
565,60	527,44
565,69	521,12
565,78	765,63
565,87	680,66
565,96	602,02
566,05	541,45
566,14	607,89
566,23	618,74
566,32	765,63
566,40	416,71
566,49	816,70
566,58	470,95
566,67	742,13
566,76	721,79
566,85	656,71
566,94	718,63
567,03	627,78
567,11	653,54
567,20	662,13
567,29	790,49
567,38	694,22
567,47	662,58
567,56	735,80
567,65	595,24
567,73	635,01
567,82	632,75
567,91	784,16
568,00	619,64
568,09	495,81
568,18	556,82
568,27	576,26
568,35	688,80
568,44	596,14
568,53	521,57
568,62	621,45
568,71	652,64
568,80	664,84
568,88	716,82
568,97	499,87
569,06	535,58
569,15	642,24
569,24	658,97
569,32	609,25
569,41	710,49
569,50	647,67
569,59	594,79
569,68	566,31
569,76	640,89
569,85	716,82
569,94	772,41
570,03	579,87
570,12	574,90
570,20	507,11
570,29	575,35
570,38	708,68
570,47	474,11
570,56	544,62
570,64	480,89
570,73	673,43
570,82	683,82
570,91	676,59
570,99	418,52
571,08	512,53
571,17	480,44
571,26	548,69
571,34	500,33
571,43	503,49
571,52	683,37
571,61	752,52
571,69	557,73
571,78	521,12
571,87	481,34
571,96	556,82
572,04	556,82
572,13	628,23
572,22	541,00
572,31	452,87
572,39	336,71
572,48	543,71
572,57	495,35
572,66	585,75
572,74	571,74
572,83	672,52
572,92	639,08
573,00	555,01
573,09	708,23
573,18	584,84
573,27	671,62
573,35	536,03
573,44	583,49
573,53	543,71
573,61	584,84
573,70	1049,92
573,79	504,39
573,87	497,16
573,96	328,13
574,05	635,92
574,14	693,77
574,22	449,71
574,31	627,78
574,40	488,12
574,48	650,83
574,57	526,99
574,66	586,20
574,74	579,42
574,83	667,55
574,92	484,96
575,00	673,88
575,09	653,99
575,18	484,06
575,26	402,70
575,35	524,73
575,43	522,92
575,52	503,94
575,61	883,14
575,69	551,40
575,78	572,64
575,87	743,48
575,95	597,95
576,04	528,35
576,13	568,12
576,21	608,35
576,30	479,08
576,38	609,70
576,47	844,27
576,56	129,26
576,64	428,92
576,73	655,35
576,82	517,50
576,90	512,08
576,99	509,82
577,07	546,43
577,16	577,16
577,25	587,56
577,33	648,57
577,42	465,52
577,50	596,14
577,59	580,78
577,68	569,02
577,76	521,12
577,85	609,25
577,93	824,39
578,02	599,31
578,10	102,14
578,19	359,76
578,28	636,37
578,36	643,60
578,45	707,33
578,53	684,28
578,62	910,71
578,70	593,88
578,79	705,07
578,88	704,61
578,96	782,80
579,05	666,20
579,13	1055,34
579,22	783,26
579,30	913,42
579,39	817,15
579,47	759,75
579,56	546,88
579,64	567,22
579,73	747,10
579,82	448,35
579,90	659,42
579,99	565,86
580,07	703,71
580,16	574,45
580,24	680,66
580,33	602,02
580,41	664,84
580,50	462,81
580,58	541,91
580,67	679,76
580,75	661,23
580,84	522,47
580,92	456,94
581,01	721,34
581,09	611,96
581,18	734,90
581,26	477,28
581,35	605,18
581,43	378,30
581,52	457,84
581,60	487,67
581,69	587,56
581,77	650,38
581,86	339,43
581,94	564,96
582,02	-2685,13
582,11	391,40
582,19	465,98
582,28	2023,90
582,36	601,11
582,45	755,69
582,53	541,45
582,62	377,39
582,70	482,25
582,79	533,32
582,87	337,17
582,96	362,48
583,04	493,55
583,12	579,87
583,21	504,39
583,29	620,10
583,38	419,88
583,46	576,71
583,55	358,41
583,63	392,31
583,71	511,17
583,80	563,60
583,88	378,30
583,97	387,79
584,05	442,02
584,13	423,94
584,22	450,16
584,30	506,65
584,39	538,29
584,47	604,28
584,55	413,10
584,64	549,59
584,72	467,33
584,81	365,64
584,89	467,78
584,97	475,92
585,06	336,26
585,14	454,23
585,23	485,86
585,31	263,04
585,39	303,72
585,48	612,87
585,56	479,99
585,64	605,18
585,73	342,14
585,81	625,97
585,90	-1455,78
585,98	418,52
586,06	506,20
586,15	586,65
586,23	449,71
586,31	301,91
586,40	382,36
586,48	444,73
586,56	454,68
586,65	371,06
586,73	235,02
586,81	453,32
586,90	513,43
586,98	278,86
587,06	383,27
587,15	301,01
587,23	704,16
587,31	346,66
587,40	310,05
587,48	350,73
587,56	528,35
587,65	478,63
587,73	621,00
587,81	364,28
587,90	444,28
587,98	486,77
588,06	470,95
588,14	357,50
588,23	403,61
588,31	465,52
588,39	269,82
588,48	258,07
588,56	239,09
588,64	70,51
588,72	597,05
588,81	522,92
588,89	248,58
588,97	305,98
589,06	399,54
589,14	431,18
589,22	477,28
589,30	467,33
589,39	373,32
589,47	681,11
589,55	663,03
589,63	580,78
589,72	362,93
589,80	519,76
589,88	397,28
589,96	612,41
590,05	434,79
590,13	448,35
590,21	418,97
590,29	403,61
590,38	432,98
590,46	506,20
590,54	300,56
590,62	384,17
590,71	484,06
590,79	309,60
590,87	425,75
590,95	328,13
591,03	475,02
591,12	478,18
591,20	374,68
591,28	706,42
591,36	370,61
591,44	381,91
591,53	437,05
591,61	428,92
591,69	400,89
591,77	372,42
591,85	602,02
591,94	346,66
592,02	426,66
592,10	321,80
592,18	267,11
592,26	327,22
592,34	300,56
592,43	405,87
592,51	383,72
592,59	594,79
592,67	373,78
592,75	273,44
592,84	439,31
592,92	512,98
593,00	516,60
593,08	358,41
593,16	336,26
593,24	354,34
593,32	357,50
593,41	541,00
593,49	309,60
593,57	468,69
593,65	350,73
593,73	413,55
593,81	359,76
593,89	296,94
593,98	296,94
594,06	327,67
594,14	407,67
594,22	287,00
594,30	139,66
594,38	462,81
594,46	267,11
594,54	425,30
594,62	312,31
594,71	373,32
594,79	532,87
594,87	388,69
594,95	431,18
595,03	449,25
595,11	239,54
595,19	354,79
595,27	492,64
595,35	495,81
595,43	367,90
595,52	412,64
595,60	406,32
595,68	631,85
595,76	413,10
595,84	290,16
595,92	279,31
596,00	452,42
596,08	374,68
596,16	419,88
596,24	204,74
596,32	528,80
596,40	396,37
596,48	415,81
596,56	646,76
596,64	444,73
596,73	2051,47
596,81	411,74
596,89	385,53
596,97	314,57
597,05	230,05
597,13	407,22
597,21	376,49
597,29	543,71
597,37	371,52
597,45	246,32
597,53	288,35
597,61	428,46
597,69	460,10
597,77	525,64
597,85	263,04
597,93	352,99
598,01	435,69
598,09	262,14
598,17	357,96
598,25	308,69
598,33	337,62
598,41	449,71
598,49	301,91
598,57	474,11
598,65	281,57
598,73	504,85
598,81	305,53
598,89	437,95
598,97	415,36
599,05	330,84
599,13	318,64
599,21	606,09
599,29	400,89
599,37	523,38
599,45	461,46
599,53	476,37
599,61	329,48
599,69	555,47
599,77	357,50
599,85	465,98
599,93	478,18
600,00	282,93
600,08	206,55
600,16	396,37
600,24	308,24
600,32	649,02
600,40	567,22
600,48	395,92
600,56	364,28
600,64	411,29
600,72	345,30
600,80	219,66
600,88	178,53
600,96	545,07
601,04	293,78
601,12	367,45
601,19	415,36
601,27	412,19
601,35	355,24
601,43	513,43
601,51	275,70
601,59	218,75
601,67	437,50
601,75	207,00
601,83	461,00
601,91	351,18
601,98	249,48
602,06	297,85
602,14	338,52
602,22	157,74
602,30	-382,81
602,38	376,94
602,46	431,63
602,54	427,56
602,61	297,39
602,69	334,91
602,77	305,98
602,85	262,59
602,93	294,23
603,01	498,07
603,09	421,68
603,17	255,81
603,24	395,92
603,32	402,70
603,40	462,81
603,48	254,91
603,56	304,62
603,64	181,69
603,71	202,48
603,79	257,62
603,87	287,90
603,95	430,72
604,03	303,27
604,11	258,07
604,18	337,62
604,26	371,97
604,34	290,61
604,42	305,98
604,50	373,32
604,57	113,44
604,65	350,73
604,73	248,13
604,81	-2601,51
604,89	264,85
604,96	385,53
605,04	324,96
605,12	391,85
605,20	394,11
605,28	-159,54
605,35	280,67
605,43	364,74
605,51	400,89
605,59	498,52
605,67	462,36
605,74	263,04
605,82	340,33
605,90	263,95
605,98	315,02
606,05	390,05
606,13	396,37
606,21	259,88
606,29	363,83
606,36	273,89
606,44	373,32
606,52	434,34
606,60	221,01
606,67	328,13
606,75	264,40
606,83	293,78
606,91	296,94
606,98	187,11
607,06	278,86
607,14	222,37
607,22	271,63
607,29	404,51
607,37	251,29
607,45	235,47
607,52	352,53
607,60	364,74
607,68	277,51
607,76	415,36
607,83	247,68
607,91	230,50
607,99	362,02
608,06	290,61
608,14	333,55
608,22	363,83
608,30	434,79
608,37	337,17
608,45	343,95
608,53	411,74
608,60	416,71
608,68	252,20
608,76	235,02
608,83	386,43
608,91	249,03
608,99	264,85
609,06	367,90
609,14	284,74
609,22	157,74
609,29	342,14
609,37	177,17
609,45	345,30
609,52	290,61
609,60	287,45
609,68	224,17
609,75	278,86
609,83	391,85
609,91	363,38
609,98	261,24
610,06	256,26
610,13	259,88
610,21	153,67
610,29	270,28
610,36	62,37
610,44	178,53
610,52	388,69
610,59	345,30
610,67	427,56
610,74	203,38
610,82	297,85
610,90	329,03
610,97	366,54
611,05	475,92
611,13	296,04
611,20	376,04
611,28	254,00
611,35	179,43
611,43	324,96
611,51	272,08
611,58	386,43
611,66	117,06
611,73	269,82
611,81	98,08
611,88	357,50
611,96	266,21
612,04	262,14
612,11	251,29
612,19	352,08
612,26	178,53
612,34	281,12
612,41	293,33
612,49	320,90
612,57	192,54
612,64	295,59
612,72	268,02
612,79	295,59
612,87	205,19
612,94	220,56
613,02	264,85
613,09	287,90
613,17	385,98
613,24	149,60
613,32	372,42
613,40	277,51
613,47	229,15
613,55	147,79
613,62	202,48
613,70	329,48
613,77	139,21
613,85	143,73
613,92	291,07
614,00	244,06
614,07	418,07
614,15	294,68
614,22	363,38
614,30	222,82
614,37	262,59
614,45	307,34
614,52	233,21
614,60	174,01
614,67	152,31
614,75	314,12
614,82	478,18
614,90	217,40
614,97	232,31
615,05	267,11
615,12	255,36
615,20	461,91
615,27	323,61
615,34	334,91
615,42	374,23
615,49	351,18
615,57	88,59
615,64	350,73
615,72	135,14
615,79	243,61
615,87	123,39
615,94	290,61
616,02	255,36
616,09	543,71
616,16	160,45
616,24	365,19
616,31	275,25
616,39	512,08
616,46	147,34
616,54	40,68
616,61	228,69
616,68	369,71
616,76	253,10
616,83	165,42
616,91	218,75
616,98	151,41
617,06	265,76
617,13	193,89
617,20	408,12
617,28	287,45
617,35	310,95
617,43	365,19
617,50	209,71
617,57	373,78
>>>>>End Processed Spectral Data<<<<<
