SpectraSuite Datei
++++++++++++++++++++++++++++++++++++
Datum: Wed Apr 14 13:48:20 CEST 2021
Benutzer: Student
Dark-Spektrum vorhanden: Ja
Referenz-Spektrum vorhanden: Nein
Zahl der probierten Teilspektren: 1
Spektrometer: USB2+H04734
Integrationszeit (usec): 65000000 (USB2+H04734)
Spektren Durchschnitt berechnet: 1 (USB2+H04734)
Boxcar Glättung: 0 (USB2+H04734)
Dunkelstromkorrektur: Nein (USB2+H04734)
Puls/Lampe aktiviert: Nein (USB2+H04734)
Correct for Detector Non-linearity: Nein (USB2+H04734)
Streulichtkorrektur: Nein (USB2+H04734)
Anzahl Pixel in verarbeitetem Spektrum: 2048
>>>>>Begin Processed Spectral Data<<<<<
418,45	-40,68
418,57	-40,68
418,69	-40,68
418,80	-54,24
418,92	-6,78
419,04	560,44
419,16	83,61
419,28	88,13
419,40	15,82
419,52	15,82
419,64	318,64
419,75	18,08
419,87	85,87
419,99	-76,83
420,11	131,07
420,23	-74,57
420,35	255,36
420,47	92,65
420,58	67,79
420,70	51,98
420,82	-153,67
420,94	61,02
421,06	106,21
421,18	232,76
421,29	293,78
421,41	85,87
421,53	144,63
421,65	117,51
421,77	311,86
421,89	-65,54
422,00	85,87
422,12	174,01
422,24	248,58
422,36	201,12
422,48	248,58
422,59	178,53
422,71	185,31
422,83	259,88
422,95	36,16
423,07	305,08
423,18	-38,42
423,30	318,64
423,42	183,05
423,54	228,24
423,66	-24,86
423,77	223,72
423,89	88,13
424,01	-6,78
424,13	67,79
424,25	74,57
424,36	-65,53
424,48	253,10
424,60	36,16
424,72	106,21
424,84	51,98
424,95	196,60
425,07	11,30
425,19	36,16
425,31	103,95
425,42	210,16
425,54	6,78
425,66	-2418,02
425,78	2,26
425,89	225,98
426,01	11,30
426,13	641,79
426,25	370,61
426,36	61,02
426,48	47,46
426,60	350,27
426,72	158,19
426,83	162,71
426,95	-6,78
427,07	223,72
427,19	307,34
427,30	38,42
427,42	-63,28
427,54	189,83
427,66	323,16
427,77	176,27
427,89	54,24
428,01	117,51
428,12	282,48
428,24	101,69
428,36	61,02
428,48	13,56
428,59	-94,91
428,71	58,76
428,83	-76,83
428,94	158,19
429,06	275,70
429,18	311,86
429,30	83,61
429,41	-67,79
429,53	273,44
429,65	219,20
429,76	-115,25
429,88	149,15
430,00	386,43
430,11	88,13
430,23	40,68
430,35	-88,13
430,47	83,61
430,58	144,63
430,70	327,67
430,82	225,98
430,93	438,41
431,05	27,12
431,17	76,83
431,28	196,60
431,40	119,77
431,52	465,52
431,63	158,19
431,75	-40,68
431,87	354,79
431,98	393,21
432,10	90,39
432,22	264,40
432,33	45,20
432,45	244,06
432,56	-47,46
432,68	370,61
432,80	81,35
432,91	214,68
433,03	6,78
433,15	51,98
433,26	33,90
433,38	158,19
433,50	-31,64
433,61	-99,43
433,73	248,58
433,84	-90,39
433,96	51,98
434,08	122,03
434,19	250,84
434,31	174,01
434,43	-99,43
434,54	203,38
434,66	88,13
434,77	49,72
434,89	381,91
435,01	176,27
435,12	33,90
435,24	-27,12
435,35	97,17
435,47	126,55
435,59	-76,83
435,70	142,37
435,82	29,38
435,93	144,63
436,05	112,99
436,17	126,55
436,28	76,83
436,40	207,90
436,51	185,31
436,63	131,07
436,74	38,42
436,86	124,29
436,98	736,70
437,09	216,94
437,21	20,34
437,32	61,02
437,44	183,05
437,55	-158,19
437,67	-205,64
437,79	388,69
437,90	205,64
438,02	108,47
438,13	171,75
438,25	277,96
438,36	221,46
438,48	15,82
438,59	90,39
438,71	155,93
438,83	350,27
438,94	133,33
439,06	284,74
439,17	438,41
439,29	49,72
439,40	-36,16
439,52	140,11
439,63	29,38
439,75	135,59
439,86	149,15
439,98	-117,51
440,09	158,19
440,21	314,12
440,32	169,49
440,44	99,43
440,55	-31,64
440,67	83,61
440,78	70,05
440,90	124,29
441,01	180,79
441,13	-51,98
441,24	158,19
441,36	9,04
441,47	4,52
441,59	-499,42
441,70	-56,50
441,82	76,83
441,93	-2,26
442,05	151,41
442,16	36,16
442,28	38,42
442,39	164,97
442,51	271,18
442,62	-54,24
442,74	433,89
442,85	216,94
442,97	314,12
443,08	230,50
443,20	327,67
443,31	110,73
443,43	-185,31
443,54	126,55
443,66	76,83
443,77	178,53
443,88	183,05
444,00	167,23
444,11	126,55
444,23	45,20
444,34	4,52
444,46	-2,26
444,57	241,80
444,69	214,68
444,80	-13,56
444,91	515,24
445,03	106,21
445,14	253,10
445,26	122,03
445,37	90,39
445,49	183,05
445,60	183,05
445,71	92,65
445,83	67,79
445,94	40,68
446,06	-151,41
446,17	479,08
446,29	219,20
446,40	140,11
446,51	137,85
446,63	140,11
446,74	58,76
446,86	352,53
446,97	85,87
447,08	336,71
447,20	155,93
447,31	-178,53
447,43	58,76
447,54	103,95
447,65	101,69
447,77	-108,47
447,88	63,28
448,00	38,42
448,11	106,21
448,22	-108,47
448,34	-74,57
448,45	155,93
448,56	-6,78
448,68	207,90
448,79	-167,23
448,90	11,30
449,02	223,72
449,13	74,57
449,25	124,29
449,36	142,37
449,47	6,78
449,59	108,47
449,70	201,12
449,81	-149,15
449,93	-61,02
450,04	169,49
450,15	47,46
450,27	-67,79
450,38	0,00
450,49	264,40
450,61	103,95
450,72	24,86
450,83	-124,29
450,95	219,20
451,06	277,96
451,17	155,93
451,29	180,79
451,40	11,30
451,51	97,17
451,63	144,63
451,74	167,23
451,85	-54,24
451,97	94,91
452,08	-112,99
452,19	88,13
452,31	140,11
452,42	223,72
452,53	424,85
452,65	153,67
452,76	79,09
452,87	178,53
452,98	-56,50
453,10	88,13
453,21	63,28
453,32	232,76
453,44	178,53
453,55	42,94
453,66	406,77
453,77	336,71
453,89	327,67
454,00	-15,82
454,11	354,79
454,23	311,86
454,34	174,01
454,45	33,90
454,56	74,57
454,68	287,00
454,79	164,97
454,90	169,49
455,01	-15,82
455,13	201,12
455,24	-169,49
455,35	6,78
455,46	-2,26
455,58	-27,12
455,69	33,90
455,80	169,49
455,91	-151,41
456,03	-275,70
456,14	187,57
456,25	255,36
456,36	101,69
456,48	-65,53
456,59	404,51
456,70	67,79
456,81	-45,20
456,92	451,97
457,04	13,56
457,15	248,58
457,26	58,76
457,37	160,45
457,49	2,26
457,60	205,64
457,71	-92,65
457,82	901,67
457,93	275,70
458,05	6,78
458,16	189,83
458,27	135,59
458,38	-24,86
458,49	262,14
458,61	-72,31
458,72	194,35
458,83	135,59
458,94	31,64
459,05	108,47
459,17	162,71
459,28	106,21
459,39	-22,60
459,50	-90,39
459,61	158,19
459,72	-128,81
459,84	228,24
459,95	169,49
460,06	388,69
460,17	239,54
460,28	192,09
460,39	137,85
460,51	-13,56
460,62	185,31
460,73	223,72
460,84	307,34
460,95	-115,25
461,06	497,16
461,18	180,79
461,29	65,53
461,40	85,87
461,51	27,12
461,62	210,16
461,73	115,25
461,84	176,27
461,96	244,06
462,07	72,31
462,18	196,60
462,29	119,77
462,40	189,83
462,51	67,79
462,62	38,42
462,73	447,45
462,85	180,79
462,96	79,09
463,07	108,47
463,18	291,52
463,29	216,94
463,40	124,29
463,51	142,37
463,62	65,53
463,73	354,79
463,85	266,66
463,96	133,33
464,07	-196,60
464,18	-255,36
464,29	-103,95
464,40	447,45
464,51	158,19
464,62	221,46
464,73	-117,51
464,84	406,77
464,95	63,28
465,06	171,75
465,18	24,86
465,29	45,20
465,40	542,36
465,51	176,27
465,62	160,45
465,73	140,11
465,84	280,22
465,95	259,88
466,06	83,61
466,17	146,89
466,28	88,13
466,39	424,85
466,50	106,21
466,61	36,16
466,72	124,29
466,83	74,57
466,95	40,68
467,06	-128,81
467,17	-11,30
467,28	90,39
467,39	38,42
467,50	305,08
467,61	-76,83
467,72	-31,64
467,83	153,67
467,94	142,37
468,05	97,17
468,16	-133,33
468,27	67,79
468,38	108,47
468,49	244,06
468,60	201,12
468,71	-103,95
468,82	194,35
468,93	248,58
469,04	92,65
469,15	255,36
469,26	155,93
469,37	85,87
469,48	440,67
469,59	-106,21
469,70	33,90
469,81	51,98
469,92	-54,24
470,03	338,97
470,14	-20,34
470,25	205,64
470,36	214,68
470,47	9,04
470,58	155,93
470,69	275,70
470,80	232,76
470,91	63,28
471,02	160,45
471,13	293,78
471,24	117,51
471,35	47,46
471,46	402,25
471,56	277,96
471,67	293,78
471,78	571,74
471,89	291,52
472,00	262,14
472,11	409,03
472,22	176,27
472,33	119,77
472,44	169,49
472,55	92,65
472,66	45,20
472,77	108,47
472,88	390,95
472,99	137,85
473,10	-63,28
473,21	-108,47
473,32	-4,52
473,42	122,03
473,53	101,69
473,64	-79,09
473,75	167,23
473,86	155,93
473,97	76,83
474,08	255,36
474,19	90,39
474,30	70,05
474,41	85,87
474,52	316,38
474,62	133,33
474,73	74,57
474,84	31,64
474,95	149,15
475,06	219,20
475,17	207,90
475,28	15,82
475,39	54,24
475,50	246,32
475,60	155,93
475,71	88,13
475,82	183,05
475,93	-24,86
476,04	169,49
476,15	275,70
476,26	106,21
476,37	140,11
476,47	128,81
476,58	219,20
476,69	-149,15
476,80	128,81
476,91	-92,65
477,02	216,94
477,13	189,83
477,23	-72,31
477,34	92,65
477,45	133,33
477,56	92,65
477,67	83,61
477,78	219,20
477,89	205,64
477,99	280,22
478,10	212,42
478,21	144,63
478,32	277,96
478,43	33,90
478,54	449,71
478,64	27,12
478,75	167,23
478,86	-65,54
478,97	-20,34
479,08	4,52
479,18	-6,78
479,29	246,32
479,40	0,00
479,51	135,59
479,62	70,05
479,72	185,31
479,83	33,90
479,94	241,80
480,05	350,27
480,16	61,02
480,26	375,13
480,37	196,60
480,48	27,12
480,59	88,13
480,70	0,00
480,80	-61,02
480,91	83,61
481,02	-81,35
481,13	158,19
481,24	131,07
481,34	79,09
481,45	456,49
481,56	51,98
481,67	289,26
481,77	81,35
481,88	205,64
481,99	140,11
482,10	-20,34
482,20	110,73
482,31	205,64
482,42	187,57
482,53	90,39
482,63	300,56
482,74	253,10
482,85	-29,38
482,96	187,57
483,06	79,09
483,17	176,27
483,28	119,77
483,39	246,32
483,49	63,28
483,60	271,18
483,71	-33,90
483,81	133,33
483,92	198,86
484,03	189,83
484,14	9,04
484,24	58,76
484,35	232,76
484,46	81,35
484,57	106,21
484,67	-61,02
484,78	203,38
484,89	551,40
484,99	20,34
485,10	74,57
485,21	67,79
485,31	409,03
485,42	124,29
485,53	180,79
485,63	22,60
485,74	108,47
485,85	225,98
485,96	628,23
486,06	47,46
486,17	268,92
486,28	-15,82
486,38	-2,26
486,49	13,56
486,60	216,94
486,70	36,16
486,81	72,31
486,92	-137,85
487,02	135,59
487,13	18,08
487,24	296,04
487,34	-51,98
487,45	90,39
487,56	11,30
487,66	140,11
487,77	-63,28
487,87	160,45
487,98	97,17
488,09	81,35
488,19	140,11
488,30	354,79
488,41	36,16
488,51	201,12
488,62	481,34
488,73	81,35
488,83	253,10
488,94	-4,52
489,04	603,37
489,15	262,14
489,26	76,83
489,36	205,64
489,47	273,44
489,58	140,11
489,68	241,80
489,79	-2,26
489,89	106,21
490,00	216,94
490,11	6,78
490,21	185,31
490,32	-56,50
490,42	13,56
490,53	135,59
490,64	144,63
490,74	72,31
490,85	103,95
490,95	128,81
491,06	180,79
491,16	185,31
491,27	42,94
491,38	38,42
491,48	214,68
491,59	167,23
491,69	20,34
491,80	56,50
491,90	216,94
492,01	56,50
492,12	40,68
492,22	264,40
492,33	262,14
492,43	-9,04
492,54	293,78
492,64	51,98
492,75	216,94
492,86	402,25
492,96	128,81
493,07	282,48
493,17	67,79
493,28	291,52
493,38	212,42
493,49	135,59
493,59	-31,64
493,70	162,71
493,80	149,15
493,91	101,69
494,01	29,38
494,12	11,30
494,22	201,12
494,33	280,22
494,43	169,49
494,54	-61,02
494,64	6,78
494,75	54,24
494,86	185,31
494,96	171,75
495,07	122,03
495,17	124,29
495,28	38,42
495,38	58,76
495,49	-205,64
495,59	185,31
495,69	13,56
495,80	-97,17
495,90	153,67
496,01	682,47
496,11	185,31
496,22	117,51
496,32	183,05
496,43	262,14
496,53	-4,52
496,64	-13,56
496,74	336,71
496,85	160,45
496,95	230,50
497,06	51,98
497,16	103,95
497,27	151,41
497,37	79,09
497,48	164,97
497,58	85,87
497,68	187,57
497,79	94,91
497,89	210,16
498,00	99,43
498,10	124,29
498,21	555,92
498,31	61,02
498,42	126,55
498,52	293,78
498,62	-24,86
498,73	149,15
498,83	-122,03
498,94	137,85
499,04	74,57
499,15	149,15
499,25	151,41
499,35	300,56
499,46	128,81
499,56	201,12
499,67	372,87
499,77	103,95
499,87	219,20
499,98	230,50
500,08	241,80
500,19	164,97
500,29	142,37
500,39	790,94
500,50	390,95
500,60	36,16
500,71	-117,51
500,81	399,99
500,91	-2,26
501,02	169,49
501,12	499,42
501,22	144,63
501,33	135,59
501,43	85,87
501,54	103,95
501,64	176,27
501,74	-115,25
501,85	239,54
501,95	103,95
502,05	54,24
502,16	-4,52
502,26	287,00
502,37	144,63
502,47	122,03
502,57	133,33
502,68	153,67
502,78	257,62
502,88	212,42
502,99	56,50
503,09	244,06
503,19	106,21
503,30	85,87
503,40	155,93
503,50	90,39
503,61	187,57
503,71	155,93
503,81	316,38
503,92	63,28
504,02	248,58
504,12	488,12
504,23	230,50
504,33	54,24
504,43	117,51
504,54	291,52
504,64	284,74
504,74	167,23
504,84	72,31
504,95	366,09
505,05	223,72
505,15	393,21
505,26	18,08
505,36	142,37
505,46	305,08
505,56	27,12
505,67	146,89
505,77	51,98
505,87	155,93
505,98	194,35
506,08	180,79
506,18	433,89
506,28	47,46
506,39	54,24
506,49	-140,11
506,59	144,63
506,70	22,60
506,80	244,06
506,90	558,18
507,00	88,13
507,11	36,16
507,21	352,53
507,31	289,26
507,41	210,16
507,52	302,82
507,62	110,73
507,72	332,19
507,82	470,04
507,93	174,01
508,03	336,71
508,13	268,92
508,23	169,49
508,34	36,16
508,44	137,85
508,54	237,28
508,64	467,78
508,74	221,46
508,85	307,34
508,95	230,50
509,05	291,52
509,15	341,23
509,26	348,01
509,36	404,51
509,46	402,25
509,56	183,05
509,66	350,27
509,77	291,52
509,87	409,03
509,97	352,53
510,07	219,20
510,17	366,09
510,28	467,78
510,38	357,05
510,48	302,82
510,58	305,08
510,68	510,72
510,78	621,45
510,89	262,14
510,99	461,00
511,09	790,94
511,19	510,72
511,29	840,66
511,39	1073,42
511,50	820,32
511,60	662,13
511,70	915,23
511,80	833,88
511,90	955,91
512,00	772,86
512,11	571,74
512,21	682,47
512,31	1073,42
512,41	1290,36
512,51	1224,83
512,61	1276,80
512,71	1534,42
512,82	1206,75
512,92	946,87
513,02	578,52
513,12	720,89
513,22	569,48
513,32	596,59
513,42	470,04
513,53	797,72
513,63	454,23
513,73	456,49
513,83	420,33
513,93	662,13
514,03	793,20
514,13	501,68
514,23	449,71
514,33	422,59
514,44	515,24
514,54	659,87
514,64	684,73
514,74	490,38
514,84	601,11
514,94	718,63
515,04	571,74
515,14	630,49
515,24	420,33
515,34	630,49
515,44	476,82
515,55	488,12
515,65	553,66
515,75	605,63
515,85	628,23
515,95	845,18
516,05	985,28
516,15	700,55
516,25	675,69
516,35	768,34
516,45	664,39
516,55	797,72
516,65	512,98
516,75	935,57
516,85	736,70
516,95	736,70
517,05	388,69
517,16	402,25
517,26	1256,46
517,36	558,18
517,46	691,51
517,56	707,33
517,66	1019,18
517,76	734,44
517,86	874,55
517,96	858,73
518,06	723,14
518,16	673,43
518,26	937,83
518,36	831,62
518,46	962,69
518,56	768,34
518,66	969,47
518,76	996,58
518,86	1012,40
518,96	908,45
519,06	924,27
519,16	987,54
519,26	1001,10
519,36	1109,58
519,46	897,15
519,56	1138,95
519,66	1405,61
519,76	1125,39
519,86	865,51
519,96	1218,05
520,06	1077,94
520,16	1333,30
520,26	1123,13
520,36	1132,17
520,46	1263,24
520,56	1105,06
520,66	1319,74
520,76	1256,46
520,86	1410,13
520,96	1181,89
521,06	1419,17
521,16	1297,14
521,26	1306,18
521,35	1360,42
521,45	1407,87
521,55	1670,01
521,65	1801,08
521,75	1645,15
521,85	1319,74
521,95	1801,08
522,05	1547,98
522,15	1848,54
522,25	1308,44
522,35	1667,75
522,45	1792,04
522,55	2128,76
522,65	1990,91
522,75	2465,47
522,85	2173,95
522,94	2517,45
523,04	2775,07
523,14	3012,35
523,24	3166,02
523,34	3877,86
523,44	4985,18
523,54	5828,10
523,64	6725,25
523,74	7916,18
523,84	7891,32
523,94	7233,71
524,03	6643,89
524,13	5873,29
524,23	4820,21
524,33	3371,66
524,43	2580,72
524,53	1444,03
524,63	924,27
524,73	863,25
524,83	440,67
524,92	379,65
525,02	268,92
525,12	282,48
525,22	149,15
525,32	164,97
525,42	58,76
525,52	112,99
525,61	436,15
525,71	42,94
525,81	63,28
525,91	196,60
526,01	323,16
526,11	167,23
526,21	235,02
526,30	198,86
526,40	282,48
526,50	287,00
526,60	282,48
526,70	411,29
526,80	76,83
526,89	99,43
526,99	169,49
527,09	361,57
527,19	33,90
527,29	235,02
527,39	323,16
527,48	178,53
527,58	171,75
527,68	-24,86
527,78	4,52
527,88	555,92
527,97	377,39
528,07	212,42
528,17	287,00
528,27	257,62
528,37	128,81
528,46	31,64
528,56	201,12
528,66	192,09
528,76	196,61
528,86	262,14
528,95	171,75
529,05	160,45
529,15	257,62
529,25	-22,60
529,35	284,74
529,44	207,90
529,54	271,18
529,64	244,06
529,74	-11,30
529,83	94,91
529,93	149,15
530,03	458,75
530,13	298,30
530,22	198,86
530,32	110,73
530,42	185,31
530,52	79,09
530,61	481,34
530,71	-119,77
530,81	180,79
530,91	268,92
531,00	239,54
531,10	273,44
531,20	456,49
531,30	420,33
531,39	899,41
531,49	1570,58
531,59	2054,18
531,69	2214,63
531,78	2311,80
531,88	2607,84
531,98	2917,44
532,07	2234,97
532,17	2047,40
532,27	1645,15
532,37	1170,59
532,46	969,47
532,56	345,75
532,66	171,75
532,75	287,00
532,85	94,91
532,95	250,84
533,04	246,32
533,14	501,68
533,24	399,99
533,34	293,78
533,43	29,38
533,53	-4,52
533,63	241,80
533,72	402,25
533,82	271,18
533,92	81,35
534,01	490,38
534,11	341,23
534,21	309,60
534,30	58,76
534,40	192,09
534,50	61,02
534,59	146,89
534,69	302,82
534,79	228,24
534,88	-47,46
534,98	115,25
535,08	49,72
535,17	323,16
535,27	282,48
535,36	178,53
535,46	445,19
535,56	155,93
535,65	334,45
535,75	253,10
535,85	442,93
535,94	124,29
536,04	499,42
536,14	271,18
536,23	472,30
536,33	196,60
536,42	225,98
536,52	221,46
536,62	210,16
536,71	221,46
536,81	153,67
536,90	24,86
537,00	-11,30
537,10	214,68
537,19	115,25
537,29	370,61
537,38	70,05
537,48	65,53
537,58	155,93
537,67	207,90
537,77	29,38
537,86	302,82
537,96	820,32
538,06	248,58
538,15	510,72
538,25	610,15
538,34	445,19
538,44	564,96
538,53	576,26
538,63	506,20
538,73	809,02
538,82	983,03
538,92	1263,24
539,01	1642,89
539,11	1841,76
539,20	3118,56
539,30	3412,34
539,39	4727,56
539,49	6948,97
539,59	9522,91
539,68	13638,06
539,78	16709,17
539,87	18944,13
539,97	21158,77
540,06	21138,43
540,16	20078,57
540,25	19161,08
540,35	16686,57
540,44	14119,40
540,54	11450,55
540,63	9739,86
540,73	8230,29
540,82	7945,55
540,92	7776,07
541,01	8038,21
541,11	7882,28
541,20	8286,79
541,30	8331,98
541,39	8440,46
541,49	8207,69
541,58	8804,29
541,68	8420,12
541,77	8065,32
541,87	7678,89
541,96	7633,70
542,06	8747,79
542,15	8133,12
542,25	6187,41
542,34	7757,99
542,44	7821,26
542,53	8282,27
542,63	8309,39
542,72	8302,61
542,82	8257,41
542,91	8404,30
543,01	8178,32
543,10	8903,72
543,20	8065,32
543,29	8587,34
543,38	8257,41
543,48	8551,19
543,57	8347,80
543,67	8239,33
543,76	8537,63
543,86	8383,96
543,95	9025,75
544,05	8334,24
544,14	8792,99
544,23	8334,24
544,33	8580,57
544,42	8928,58
544,52	8295,83
544,61	8682,26
544,71	8677,74
544,80	8496,95
544,89	8438,20
544,99	8788,47
545,08	8915,02
545,18	8478,87
545,27	9064,17
545,36	8490,17
545,46	8621,24
545,55	8490,17
545,65	8743,27
545,74	8582,83
545,84	8555,71
545,93	8939,88
546,02	8878,86
546,12	9165,86
546,21	9213,32
546,30	8944,40
546,40	8915,02
546,49	8727,45
546,59	9208,80
546,68	8569,27
546,77	9059,65
546,87	8985,07
546,96	9518,39
547,05	9174,90
547,15	8591,86
547,24	9068,69
547,34	8677,74
547,43	8881,12
547,52	9366,99
547,62	8738,75
547,71	8899,20
547,80	9005,41
547,90	9256,25
547,99	9843,81
548,08	8844,97
548,18	8519,55
548,27	9120,66
548,36	8982,81
548,46	8939,88
548,55	9527,43
548,64	9724,04
548,74	9186,20
548,83	9299,19
548,92	9565,85
549,02	8745,53
549,11	10225,72
549,20	9857,37
549,30	8763,61
549,39	9473,20
549,48	9504,83
549,58	9048,35
549,67	9529,69
549,76	9057,39
549,85	9064,17
549,95	9267,55
550,04	9663,02
550,13	9299,19
550,23	10094,65
550,32	9394,10
550,41	9308,23
550,50	10137,59
550,60	9970,36
550,69	9633,64
550,78	9762,46
550,88	10225,72
550,97	9889,01
551,06	10164,70
551,15	10049,45
551,25	10659,61
551,34	10178,26
551,43	10806,50
551,52	11249,42
551,62	11733,02
551,71	12641,48
551,80	13290,05
551,89	14207,54
551,99	16338,55
552,08	18376,92
552,17	21572,31
552,26	24779,01
552,36	26284,05
552,45	28003,78
552,54	27795,88
552,63	28008,30
552,73	27323,58
552,82	25296,51
552,91	22652,51
553,00	20833,35
553,10	19904,56
553,19	19936,20
553,28	19113,62
553,37	15464,00
553,46	19784,79
553,56	20501,16
553,65	20037,89
553,74	20444,66
553,83	19759,93
553,92	18578,04
554,02	17854,90
554,11	16216,52
554,20	15007,52
554,29	14555,55
554,38	13120,56
554,48	12307,02
554,57	11344,33
554,66	11457,33
554,75	11061,86
554,84	10853,95
554,94	10481,08
555,03	10275,44
555,12	9925,16
555,21	9726,30
555,30	10076,57
555,39	9430,26
555,49	9766,97
555,58	9658,50
555,67	9366,99
555,76	9726,30
555,85	9111,62
555,94	9122,92
556,03	9360,21
556,13	9432,52
556,22	9373,76
556,31	9518,39
556,40	8607,68
556,49	9602,01
556,58	8971,52
556,67	9120,66
556,77	8824,63
556,86	8976,04
556,95	9034,79
557,04	9005,41
557,13	8722,93
557,22	8924,06
557,31	8797,51
557,40	8503,73
557,50	9129,70
557,59	8393,00
557,68	8402,04
557,77	8754,57
557,86	8526,33
557,95	8508,25
558,04	9014,45
558,13	9086,77
558,22	8842,71
558,31	8856,26
558,41	8951,18
558,50	9328,57
558,59	9281,11
558,68	9064,17
558,77	9179,42
558,86	8189,62
558,95	10139,85
559,04	9025,75
559,13	8623,50
559,22	8189,62
559,31	8571,53
559,40	8476,61
559,49	0,00
559,59	8331,98
559,68	7292,46
559,77	8576,05
559,86	8322,94
559,95	8212,21
560,04	7839,34
560,13	7916,18
560,22	7812,22
560,31	7687,93
560,40	7995,27
560,49	7735,39
560,58	7954,59
560,67	7902,62
560,76	7816,74
560,85	7570,42
560,94	7990,75
561,03	7895,84
561,12	8440,46
561,21	7990,75
561,30	7654,04
561,39	7970,41
561,48	7880,02
561,57	7611,10
561,66	7963,63
561,75	8209,95
561,84	8004,31
561,93	7432,57
562,02	7796,41
562,11	7480,03
562,20	7489,07
562,29	7504,89
562,38	6948,97
562,47	7685,67
562,56	7561,38
562,65	7208,85
562,74	7360,26
562,83	7597,54
562,92	7154,61
563,01	7794,15
563,10	7039,36
563,19	7333,14
563,28	8067,58
563,37	7631,44
563,46	7025,80
563,55	6890,21
563,64	7701,49
563,73	6777,22
563,82	7683,41
563,91	7459,69
564,00	7385,12
564,09	7098,12
564,18	7403,20
564,27	7107,16
564,35	7507,15
564,44	7269,87
564,53	7532,01
564,62	7640,48
564,71	7136,54
564,80	7197,55
564,89	6847,28
564,98	0,00
565,07	8320,69
565,16	7055,18
565,25	7875,50
565,34	43653,09
565,43	9396,36
565,51	7213,37
565,60	7394,16
565,69	6944,45
565,78	8026,91
565,87	6901,51
565,96	7290,20
566,05	8390,74
566,14	8081,14
566,23	8268,71
566,32	9326,31
566,40	9220,10
566,49	9466,42
566,58	9561,33
566,67	9669,80
566,76	9464,16
566,85	9355,69
566,94	8973,78
567,03	8917,28
567,11	8239,33
567,20	8076,62
567,29	7527,49
567,38	7529,75
567,47	6948,97
567,56	7534,27
567,65	6924,11
567,73	6370,45
567,82	6652,93
567,91	7005,47
568,00	6435,99
568,09	5701,54
568,18	6065,38
568,27	6607,74
568,35	6779,48
568,44	6594,18
568,53	6182,89
568,62	6072,16
568,71	6011,14
568,80	6130,91
568,88	6282,32
568,97	6485,71
569,06	5859,73
569,15	6738,81
569,24	6067,64
569,32	6655,19
569,41	5979,50
569,50	5868,77
569,59	5920,75
569,68	5839,39
569,76	6338,82
569,85	6544,46
569,94	6510,56
570,03	6121,87
570,12	6356,89
570,20	6356,89
570,29	6194,19
570,38	6124,13
570,47	6456,33
570,56	5864,25
570,64	5990,80
570,73	5950,13
570,82	5965,94
570,91	5823,58
570,99	5604,37
571,08	5749,00
571,17	5520,76
571,26	5823,58
571,34	5423,59
571,43	5326,41
571,52	5513,98
571,61	5231,50
571,69	5019,08
571,78	5898,15
571,87	5848,43
571,96	5500,42
572,04	5615,67
572,13	5527,54
572,22	5545,62
572,31	4976,14
572,39	5581,77
572,48	5970,46
572,57	5572,73
572,66	5303,82
572,74	5423,59
572,83	5687,99
572,92	5477,82
573,00	5495,90
573,09	5283,48
573,18	5482,34
573,27	5581,77
573,35	5290,26
573,44	5378,39
573,53	5568,22
573,61	5419,07
573,70	5771,60
573,79	5369,35
573,87	6094,76
573,96	5477,82
574,05	5595,33
574,14	5669,91
574,22	5669,91
574,31	6402,09
574,40	5552,40
574,48	6162,55
574,57	6537,68
574,66	6772,70
574,74	6700,39
574,83	7773,81
574,92	7819,00
575,00	9197,50
575,09	9041,57
575,18	9642,68
575,26	10268,66
575,35	10063,01
575,43	10363,57
575,52	10311,59
575,61	9963,58
575,69	9572,63
575,78	8528,59
575,87	8257,41
575,95	7541,04
576,04	6937,67
576,13	6607,74
576,21	6465,37
576,30	6415,65
576,38	5936,57
576,47	6022,44
576,56	6252,94
576,64	5495,90
576,73	5816,80
576,82	5629,23
576,90	5249,58
576,99	5642,79
577,07	5324,15
577,16	5466,52
577,25	4935,46
577,33	5193,08
577,42	4976,14
577,50	4634,91
577,59	5181,78
577,68	5326,41
577,76	5059,75
577,85	4625,87
577,93	4883,49
578,02	4795,35
578,10	3932,10
578,19	4630,39
578,28	4601,01
578,36	4614,57
578,45	4569,37
578,53	4316,27
578,62	4388,59
578,70	4411,18
578,79	4501,58
578,88	4404,40
578,96	4149,04
579,05	4268,81
579,13	4664,28
579,22	4180,68
579,30	4099,33
579,39	4155,82
579,47	4460,90
579,56	4033,79
579,64	4591,97
579,73	3796,51
579,82	4178,42
579,90	3746,79
579,99	4140,00
580,07	4264,29
580,16	3828,15
580,24	4140,00
580,33	3769,39
580,41	3914,02
580,50	3868,82
580,58	4126,45
580,67	3805,55
580,75	4354,69
580,84	3568,27
580,92	3843,97
581,01	4605,53
581,09	3954,70
581,18	4171,64
581,26	3728,72
581,35	3769,39
581,43	4119,67
581,52	3911,76
581,60	3841,71
581,69	3988,60
581,77	3830,41
581,86	3819,11
581,94	3911,76
582,02	4090,29
582,11	3624,76
582,19	4047,35
582,28	4216,84
582,36	3615,72
582,45	3932,10
582,53	3498,21
582,62	3812,33
582,70	3656,40
582,79	3862,05
582,87	3423,64
582,96	3572,79
583,04	3943,40
583,12	3730,98
583,21	3717,42
583,29	3480,13
583,38	3742,27
583,46	3525,33
583,55	3570,53
583,63	3432,68
583,71	3597,65
583,80	3459,80
583,88	3385,22
583,97	3683,52
584,05	3269,97
584,13	3346,80
584,22	3584,09
584,30	3428,16
584,39	3665,44
584,47	3744,53
584,55	3364,88
584,64	3584,09
584,72	3669,96
584,81	3256,41
584,89	3274,49
584,97	3231,55
585,06	3123,08
585,14	3310,65
585,23	3471,10
585,31	3301,61
585,39	3495,95
585,48	3504,99
585,56	3267,71
585,64	3364,88
585,73	3726,46
585,81	3233,81
585,90	2178,47
585,98	3186,36
586,06	3791,99
586,15	3556,97
586,23	3016,87
586,31	3269,97
586,40	3089,18
586,48	3645,10
586,56	3175,06
586,65	3272,23
586,73	3294,83
586,81	3428,16
586,90	3089,18
586,98	3123,08
587,06	2908,40
587,15	3509,51
587,23	3114,04
587,31	3468,84
587,40	3179,58
587,48	3077,89
587,56	3382,96
587,65	3669,96
587,73	2962,63
587,81	3217,99
587,90	3975,04
587,98	3107,26
588,06	3057,55
588,14	3023,65
588,23	3109,52
588,31	3159,24
588,39	3177,32
588,48	2940,04
588,56	2958,11
588,64	3401,04
588,72	3055,29
588,81	2960,37
588,89	3021,39
588,97	3007,83
589,06	3123,08
589,14	3166,02
589,22	3177,32
589,30	2940,04
589,39	2770,55
589,47	3179,58
589,55	3425,90
589,63	2978,45
589,72	3025,91
589,80	2788,63
589,88	3166,02
589,96	3034,95
590,05	3012,35
590,13	2847,38
590,21	3084,66
590,29	3362,62
590,38	3315,17
590,46	2987,49
590,54	2867,72
590,62	2942,30
590,71	3041,73
590,79	3193,14
590,87	2718,57
590,95	2829,30
591,03	2698,23
591,12	3007,83
591,20	3086,92
591,28	2892,58
591,36	2978,45
591,44	2806,71
591,53	2709,53
591,61	3111,78
591,69	2849,64
591,77	3005,57
591,85	2838,34
591,94	2623,66
592,02	2924,22
592,10	2962,63
592,18	2490,33
592,26	2460,95
592,34	2634,96
592,43	2756,99
592,51	2623,66
592,59	2474,51
592,67	2361,52
592,75	2759,25
592,84	2399,94
592,92	2738,91
593,00	2845,12
593,08	2720,83
593,16	2630,44
593,24	2840,60
593,32	2985,23
593,41	2915,18
593,49	2531,01
593,57	2427,05
593,65	2510,67
593,73	2592,02
593,81	2474,51
593,89	2501,63
593,98	2705,01
594,06	2621,40
594,14	2686,93
594,22	2754,73
594,30	2182,99
594,38	2759,25
594,46	2691,45
594,54	2682,42
594,62	2921,96
594,71	2888,06
594,79	2644,00
594,87	2655,30
594,95	2483,55
595,03	3123,08
595,11	2695,97
595,19	2634,96
595,27	2637,22
595,35	2447,39
595,43	2582,98
595,52	2555,87
595,60	2454,17
595,68	2885,80
595,76	2119,72
595,84	2700,49
595,92	2237,23
596,00	2964,89
596,08	2555,86
596,16	2671,12
596,24	2691,45
596,32	2544,57
596,40	2700,49
596,48	2402,20
596,56	2750,21
596,64	2305,02
596,73	2691,45
596,81	2149,10
596,89	2612,36
596,97	2447,39
597,05	2752,47
597,13	2397,68
597,21	2295,98
597,29	2499,37
597,37	2603,32
597,45	2752,47
597,53	2390,90
597,61	2797,67
597,69	2772,81
597,77	2433,83
597,85	2404,46
597,93	2632,70
598,01	2350,22
598,09	2275,65
598,17	2515,19
598,25	2205,59
598,33	2210,11
598,41	2329,88
598,49	2228,19
598,57	2300,50
598,65	2126,50
598,73	2244,01
598,81	2293,73
598,89	2424,79
598,97	2268,87
599,05	2729,87
599,13	2289,21
599,21	2277,91
599,29	2081,30
599,37	2291,47
599,45	2305,02
599,53	2519,71
599,61	2108,42
599,69	2013,51
599,77	2282,43
599,85	2121,98
599,93	2350,22
600,00	2205,59
600,08	2465,47
600,16	2205,59
600,24	2262,09
600,32	2499,37
600,40	2357,00
600,48	2363,78
600,56	2497,11
600,64	2357,00
600,72	1936,67
600,80	2201,07
600,88	2454,17
600,96	2406,72
601,04	1909,55
601,12	2144,58
601,19	2101,64
601,27	2454,17
601,35	2015,77
601,43	2176,21
601,51	2413,50
601,59	2067,74
601,67	2216,89
601,75	1997,69
601,83	2424,80
601,91	2085,82
601,98	1853,06
602,06	2155,88
602,14	2241,75
602,22	2192,03
602,30	2121,98
602,38	2115,20
602,46	2038,36
602,54	2230,45
602,61	2447,39
602,69	1959,27
602,77	1898,26
602,85	2018,03
602,93	2049,66
603,01	1950,23
603,09	2293,73
603,17	2108,42
603,24	2149,10
603,32	1970,57
603,40	2332,14
603,48	2146,84
603,56	1805,60
603,64	1918,59
603,71	1823,68
603,79	2072,26
603,87	1837,24
603,95	2210,11
604,03	1972,83
604,11	2133,28
604,18	1588,66
604,26	1731,03
604,34	1660,97
604,42	2033,84
604,50	1907,29
604,57	1685,83
604,65	2074,52
604,73	1801,08
604,81	2182,99
604,89	1674,53
604,96	2060,96
605,04	2090,34
605,12	1712,95
605,20	1945,71
605,28	1534,42
605,35	1701,65
605,43	2124,24
605,51	2045,14
605,59	2076,78
605,67	2332,14
605,74	2146,84
605,82	2178,47
605,90	1891,48
605,98	2201,07
606,05	1810,12
606,13	2027,07
606,21	2158,14
606,29	2081,30
606,36	2079,04
606,44	2045,14
606,52	2058,70
606,60	1830,46
606,67	1778,48
606,75	1778,48
606,83	1848,54
606,91	2492,59
606,98	1798,82
607,06	1961,53
607,14	1877,92
607,22	1681,31
607,29	1801,08
607,37	1631,60
607,45	1773,96
607,52	1990,91
607,60	1868,88
607,68	1907,29
607,76	1884,70
607,83	1769,44
607,91	1715,21
607,99	1823,68
608,06	1893,74
608,14	2011,25
608,22	1672,27
608,30	1832,72
608,37	1670,01
608,45	1624,82
608,53	1907,29
608,60	1719,73
608,68	1394,31
608,76	1642,89
608,83	1920,85
608,91	1493,75
608,99	1767,19
609,06	1708,43
609,14	1511,82
609,22	1920,85
609,29	1744,59
609,37	1731,03
609,45	1764,93
609,52	1407,87
609,60	1694,87
609,68	1753,63
609,75	2058,70
609,83	1586,40
609,91	1999,95
609,98	1794,30
610,06	1679,05
610,13	1685,83
610,21	1699,39
610,29	1651,93
610,36	1557,02
610,44	1712,95
610,52	1715,21
610,59	1629,34
610,67	1441,77
610,74	1464,37
610,82	1767,19
610,90	1557,02
610,97	1464,37
611,05	1480,19
611,13	1742,33
611,20	2049,66
611,28	1231,61
611,35	1554,76
611,43	1615,78
611,51	1615,78
611,58	1532,16
611,66	1862,10
611,73	1224,83
611,81	2002,21
611,88	1586,40
611,96	1471,15
612,04	1570,58
612,11	1389,79
612,19	1886,96
612,26	1620,30
612,34	1547,98
612,41	1491,49
612,49	1407,87
612,57	1466,63
612,64	1475,67
612,72	1760,41
612,79	1482,45
612,87	1484,71
612,94	1308,44
613,02	1405,61
613,09	1251,94
613,17	1674,53
613,24	1434,99
613,32	1441,77
613,40	1285,84
613,47	1622,56
613,55	1459,85
613,62	1848,54
613,70	1685,83
613,77	1197,71
613,85	1660,97
613,92	1633,86
614,00	1353,64
614,07	1319,74
614,15	1441,77
614,22	1337,82
614,30	1577,36
614,37	1464,37
614,45	1638,38
614,52	1552,50
614,60	1340,08
614,67	1344,60
614,75	1367,20
614,82	1735,55
614,90	1557,02
614,97	1297,14
615,05	1758,15
615,12	1369,46
615,20	1260,98
615,27	1654,19
615,34	1486,97
615,42	1367,20
615,49	1434,99
615,57	1279,06
615,64	1401,09
615,72	1326,52
615,79	1168,33
615,87	1312,96
615,94	1319,74
616,02	1369,46
616,09	1351,38
616,16	1423,69
616,24	1224,83
616,31	1256,46
616,39	1349,12
616,46	1529,90
616,54	1346,86
616,61	1342,34
616,68	980,77
616,76	1378,49
616,83	1310,70
616,91	1190,93
616,98	1091,50
617,06	1477,93
617,13	1288,10
617,20	1195,45
617,28	1233,87
617,35	1186,41
617,43	1604,48
617,50	1254,20
617,57	1324,26
>>>>>End Processed Spectral Data<<<<<
