SpectraSuite Datei
++++++++++++++++++++++++++++++++++++
Datum: Wed Apr 14 18:13:10 CEST 2021
Benutzer: Student
Dark-Spektrum vorhanden: Ja
Referenz-Spektrum vorhanden: Nein
Zahl der probierten Teilspektren: 1
Spektrometer: USB2+H04734
Integrationszeit (usec): 65000000 (USB2+H04734)
Spektren Durchschnitt berechnet: 1 (USB2+H04734)
Boxcar Glättung: 0 (USB2+H04734)
Dunkelstromkorrektur: Nein (USB2+H04734)
Puls/Lampe aktiviert: Nein (USB2+H04734)
Correct for Detector Non-linearity: Nein (USB2+H04734)
Streulichtkorrektur: Nein (USB2+H04734)
Anzahl Pixel in verarbeitetem Spektrum: 2048
>>>>>Begin Processed Spectral Data<<<<<
418,45	15,82
418,57	15,82
418,69	15,82
418,80	-45,20
418,92	27,12
419,04	-22,60
419,16	-18,08
419,28	33,90
419,40	122,03
419,52	-15,82
419,64	99,43
419,75	101,69
419,87	-61,02
419,99	-94,91
420,11	90,39
420,23	31,64
420,35	-74,57
420,47	-128,81
420,58	24,86
420,70	-45,20
420,82	-22,60
420,94	-33,90
421,06	253,10
421,18	-133,33
421,29	-42,94
421,41	205,64
421,53	90,39
421,65	194,35
421,77	-97,17
421,89	-241,80
422,00	-79,09
422,12	24,86
422,24	92,65
422,36	-192,09
422,48	137,85
422,59	-137,85
422,71	-85,87
422,83	4,52
422,95	-38,42
423,07	-9,04
423,18	-135,59
423,30	24,86
423,42	24,86
423,54	-51,98
423,66	49,72
423,77	-228,24
423,89	124,29
424,01	-99,43
424,13	144,63
424,25	257,62
424,36	262,14
424,48	27,12
424,60	67,79
424,72	241,80
424,84	228,24
424,95	183,05
425,07	-51,98
425,19	-334,45
425,31	81,35
425,42	6,78
425,54	-115,25
425,66	117,51
425,78	90,39
425,89	-63,28
426,01	180,79
426,13	94,91
426,25	45,20
426,36	31,64
426,48	33,90
426,60	-2,26
426,72	133,33
426,83	174,01
426,95	-119,77
427,07	309,60
427,19	-51,98
427,30	58,76
427,42	54,24
427,54	-70,05
427,66	-51,98
427,77	241,80
427,89	-124,29
428,01	-185,31
428,12	-135,59
428,24	27,12
428,36	221,46
428,48	128,81
428,59	-65,53
428,71	47,46
428,83	33,90
428,94	-241,80
429,06	-110,73
429,18	0,00
429,30	244,06
429,41	-255,36
429,53	-607,89
429,65	-40,68
429,76	-187,57
429,88	-142,37
430,00	-20,34
430,11	246,32
430,23	-85,87
430,35	-162,71
430,47	31,64
430,58	-144,63
430,70	29,38
430,82	205,64
430,93	-76,83
431,05	-171,75
431,17	-158,19
431,28	-133,33
431,40	-128,81
431,52	-103,95
431,63	-110,73
431,75	-20,34
431,87	174,01
431,98	-235,02
432,10	-454,23
432,22	262,14
432,33	167,23
432,45	-88,13
432,56	103,95
432,68	11,30
432,80	83,61
432,91	302,82
433,03	-225,98
433,15	187,57
433,26	-79,09
433,38	88,13
433,50	198,86
433,61	239,54
433,73	20,34
433,84	-155,93
433,96	117,51
434,08	54,24
434,19	4,52
434,31	-79,09
434,43	-277,96
434,54	169,49
434,66	-131,07
434,77	-124,29
434,89	70,05
435,01	56,50
435,12	101,69
435,24	-79,09
435,35	40,68
435,47	103,95
435,59	101,69
435,70	-24,86
435,82	33,90
435,93	-27,12
436,05	-81,35
436,17	83,61
436,28	-61,02
436,40	122,03
436,51	-112,99
436,63	122,03
436,74	-85,87
436,86	-128,81
436,98	92,65
437,09	45,20
437,21	-79,09
437,32	94,91
437,44	160,45
437,55	-11,30
437,67	158,19
437,79	-20,34
437,90	341,23
438,02	-42,94
438,13	-29,38
438,25	54,24
438,36	-63,28
438,48	94,91
438,59	18,08
438,71	151,41
438,83	160,45
438,94	31,64
439,06	-42,94
439,17	31,64
439,29	72,31
439,40	-31,64
439,52	18,08
439,63	-45,20
439,75	146,89
439,86	85,87
439,98	-140,11
440,09	-45,20
440,21	70,05
440,32	-106,21
440,44	207,90
440,55	61,02
440,67	0,00
440,78	-4,52
440,90	-146,89
441,01	-97,17
441,13	29,38
441,24	-49,72
441,36	15,82
441,47	180,79
441,59	-135,59
441,70	-146,89
441,82	-67,79
441,93	-140,11
442,05	-33,90
442,16	-47,46
442,28	-108,47
442,39	230,50
442,51	119,77
442,62	214,68
442,74	-115,25
442,85	-189,83
442,97	214,68
443,08	-119,77
443,20	149,15
443,31	33,90
443,43	-40,68
443,54	49,72
443,66	76,83
443,77	42,94
443,88	-115,25
444,00	180,79
444,11	-88,13
444,23	-29,38
444,34	-51,98
444,46	70,05
444,57	9,04
444,69	-280,22
444,80	194,35
444,91	167,23
445,03	45,20
445,14	-88,13
445,26	40,68
445,37	-124,29
445,49	-63,28
445,60	-153,67
445,71	-45,20
445,83	45,20
445,94	158,19
446,06	-33,90
446,17	-379,65
446,29	268,92
446,40	31,64
446,51	137,85
446,63	149,15
446,74	205,64
446,86	-88,13
446,97	-40,68
447,08	133,33
447,20	-54,24
447,31	-29,38
447,43	178,53
447,54	-97,17
447,65	-137,85
447,77	-24,86
447,88	-99,43
448,00	-36,16
448,11	92,65
448,22	151,41
448,34	384,17
448,45	-101,69
448,56	122,03
448,68	198,86
448,79	117,51
448,90	-45,20
449,02	-9,04
449,13	228,24
449,25	81,35
449,36	-58,76
449,47	54,24
449,59	-85,87
449,70	-72,31
449,81	140,11
449,93	97,17
450,04	24,86
450,15	-117,51
450,27	-94,91
450,38	228,24
450,49	-24,86
450,61	-164,97
450,72	-108,47
450,83	-76,83
450,95	83,61
451,06	42,94
451,17	158,19
451,29	88,13
451,40	24,86
451,51	-56,50
451,63	-56,50
451,74	122,03
451,85	4,52
451,97	-97,17
452,08	-124,29
452,19	92,65
452,31	-253,10
452,42	108,47
452,53	0,00
452,65	-106,21
452,76	128,81
452,87	99,43
452,98	-79,09
453,10	90,39
453,21	-72,31
453,32	56,50
453,44	112,99
453,55	-205,64
453,66	-201,12
453,77	-15,82
453,89	180,79
454,00	-189,83
454,11	-36,16
454,23	79,09
454,34	341,23
454,45	-47,46
454,56	-63,28
454,68	-4,52
454,79	40,68
454,90	-198,86
455,01	65,53
455,13	-65,53
455,24	-51,98
455,35	-155,93
455,46	4,52
455,58	-36,16
455,69	-76,83
455,80	160,45
455,91	-92,65
456,03	97,17
456,14	-88,13
456,25	210,16
456,36	-85,87
456,48	-158,19
456,59	-36,16
456,70	27,12
456,81	45,20
456,92	-20,34
457,04	160,45
457,15	-74,57
457,26	-31,64
457,37	-2,26
457,49	221,46
457,60	-51,98
457,71	-128,81
457,82	-162,71
457,93	-20,34
458,05	-40,68
458,16	-194,35
458,27	207,90
458,38	49,72
458,49	-101,69
458,61	183,05
458,72	-327,67
458,83	-58,76
458,94	-110,73
459,05	140,11
459,17	-126,55
459,28	11,30
459,39	83,61
459,50	76,83
459,61	56,50
459,72	-4,52
459,84	-33,90
459,95	85,87
460,06	65,53
460,17	-72,31
460,28	45,20
460,39	-36,16
460,51	36,16
460,62	61,02
460,73	-314,12
460,84	178,53
460,95	-67,79
461,06	-94,91
461,18	-112,99
461,29	56,50
461,40	-128,81
461,51	31,64
461,62	-151,41
461,73	-85,87
461,84	106,21
461,96	88,13
462,07	-167,23
462,18	-198,86
462,29	214,68
462,40	-124,29
462,51	-169,49
462,62	9,04
462,73	42,94
462,85	257,62
462,96	20,34
463,07	119,77
463,18	-76,83
463,29	119,77
463,40	-235,02
463,51	153,67
463,62	137,85
463,73	126,55
463,85	377,39
463,96	-119,77
464,07	-115,25
464,18	-72,31
464,29	131,07
464,40	-142,37
464,51	-244,06
464,62	61,02
464,73	94,91
464,84	210,16
464,95	155,93
465,06	-24,86
465,18	-9,04
465,29	-20,34
465,40	-221,46
465,51	106,21
465,62	-164,97
465,73	140,11
465,84	18,08
465,95	110,73
466,06	117,51
466,17	9,04
466,28	-72,31
466,39	-291,52
466,50	-162,71
466,61	164,97
466,72	320,90
466,83	-18,08
466,95	-15,82
467,06	29,38
467,17	-20,34
467,28	2,26
467,39	47,46
467,50	0,00
467,61	33,90
467,72	185,31
467,83	-101,69
467,94	4,52
468,05	33,90
468,16	-225,98
468,27	-56,50
468,38	-70,05
468,49	-24,86
468,60	146,89
468,71	94,91
468,82	83,61
468,93	178,53
469,04	27,12
469,15	-40,68
469,26	74,57
469,37	29,38
469,48	81,35
469,59	-61,02
469,70	-72,31
469,81	67,79
469,92	131,07
470,03	67,79
470,14	0,00
470,25	2,26
470,36	155,93
470,47	9,04
470,58	33,90
470,69	189,83
470,80	49,72
470,91	128,81
471,02	-158,19
471,13	33,90
471,24	-47,46
471,35	18,08
471,46	-137,85
471,56	137,85
471,67	92,65
471,78	103,95
471,89	-58,76
472,00	76,83
472,11	67,79
472,22	79,09
472,33	-97,17
472,44	63,28
472,55	-124,29
472,66	151,41
472,77	99,43
472,88	316,38
472,99	-65,53
473,10	-22,60
473,21	13,56
473,32	189,83
473,42	-38,42
473,53	-42,94
473,64	56,50
473,75	-63,28
473,86	74,57
473,97	110,73
474,08	-61,02
474,19	38,42
474,30	-72,31
474,41	97,17
474,52	112,99
474,62	90,39
474,73	65,53
474,84	99,43
474,95	164,97
475,06	-187,57
475,17	153,67
475,28	40,68
475,39	135,59
475,50	0,00
475,60	291,52
475,71	101,69
475,82	-51,98
475,93	106,21
476,04	-76,83
476,15	-58,76
476,26	-277,96
476,37	15,82
476,47	-38,42
476,58	45,20
476,69	-40,68
476,80	-167,23
476,91	-185,31
477,02	99,43
477,13	40,68
477,23	15,82
477,34	-47,46
477,45	-67,79
477,56	-221,46
477,67	65,54
477,78	-124,29
477,89	-83,61
477,99	-250,84
478,10	99,43
478,21	18,08
478,32	180,79
478,43	83,61
478,54	298,30
478,64	42,94
478,75	99,43
478,86	67,79
478,97	-228,24
479,08	-24,86
479,18	40,68
479,29	-74,57
479,40	-58,76
479,51	9,04
479,62	-11,30
479,72	13,56
479,83	103,95
479,94	-36,16
480,05	277,96
480,16	-54,24
480,26	-126,55
480,37	-24,86
480,48	-40,68
480,59	160,45
480,70	-13,56
480,80	-144,63
480,91	47,46
481,02	-74,57
481,13	203,38
481,24	112,99
481,34	58,76
481,45	11,30
481,56	115,25
481,67	160,45
481,77	81,35
481,88	-85,87
481,99	-296,04
482,10	2,26
482,20	128,81
482,31	63,28
482,42	205,64
482,53	27,12
482,63	94,91
482,74	18,08
482,85	83,61
482,96	22,60
483,06	117,51
483,17	29,38
483,28	228,24
483,39	-45,20
483,49	201,12
483,60	74,57
483,71	153,67
483,81	63,28
483,92	40,68
484,03	119,77
484,14	47,46
484,24	-56,50
484,35	58,76
484,46	-31,64
484,57	103,95
484,67	-207,90
484,78	101,69
484,89	4,52
484,99	27,12
485,10	22,60
485,21	106,21
485,31	-54,24
485,42	92,65
485,53	-4,52
485,63	13,56
485,74	54,24
485,85	33,90
485,96	19628,86
486,06	366,09
486,17	-2,26
486,28	27,12
486,38	140,11
486,49	33,90
486,60	36,16
486,70	-219,20
486,81	85,87
486,92	155,93
487,02	174,01
487,13	-70,05
487,24	85,87
487,34	-40,68
487,45	-140,11
487,56	-79,09
487,66	45,20
487,77	29,38
487,87	108,47
487,98	38,42
488,09	20,34
488,19	171,75
488,30	273,44
488,41	-85,87
488,51	-56,50
488,62	15,82
488,73	137,85
488,83	-137,85
488,94	58,76
489,04	296,04
489,15	15,82
489,26	103,95
489,36	79,09
489,47	61,02
489,58	-38,42
489,68	-9,04
489,79	-119,77
489,89	40,68
490,00	180,79
490,11	-31,64
490,21	31,64
490,32	-67,79
490,42	122,03
490,53	-122,03
490,64	38,42
490,74	-171,75
490,85	-24,86
490,95	-623,71
491,06	-6,78
491,16	275,70
491,27	-74,57
491,38	-176,27
491,48	-519,76
491,59	-169,49
491,69	76,83
491,80	-83,61
491,90	4,52
492,01	-2,26
492,12	-103,95
492,22	45,20
492,33	54,24
492,43	106,21
492,54	-88,13
492,64	-178,53
492,75	70,05
492,86	169,49
492,96	-42,94
493,07	-70,05
493,17	183,05
493,28	158,19
493,38	76,83
493,49	203,38
493,59	142,37
493,70	61,02
493,80	40,68
493,91	-133,33
494,01	-40,68
494,12	108,47
494,22	-174,01
494,33	-88,13
494,43	-31,64
494,54	-314,12
494,64	-74,57
494,75	-13,56
494,86	341,23
494,96	-151,41
495,07	63,28
495,17	284,74
495,28	-135,59
495,38	103,95
495,49	-72,31
495,59	-29,38
495,69	-158,19
495,80	160,45
495,90	70,05
496,01	-178,53
496,11	-47,46
496,22	112,99
496,32	0,00
496,43	131,07
496,53	268,92
496,64	-20,34
496,74	-90,39
496,85	250,84
496,95	420,33
497,06	108,47
497,16	22,60
497,27	-126,55
497,37	61,02
497,48	61,02
497,58	210,16
497,68	22,60
497,79	-9,04
497,89	24,86
498,00	-47,46
498,10	-13,56
498,21	-15,82
498,31	18,08
498,42	54,24
498,52	-2,26
498,62	-106,21
498,73	18,08
498,83	92,65
498,94	58,76
499,04	-103,95
499,15	-49,72
499,25	101,69
499,35	110,73
499,46	201,12
499,56	112,99
499,67	54,24
499,77	11,30
499,87	-20,34
499,98	-6,78
500,08	31,64
500,19	-4,52
500,29	-40,68
500,39	-490,38
500,50	112,99
500,60	160,45
500,71	85,87
500,81	94,91
500,91	2,26
501,02	128,81
501,12	-386,43
501,22	-76,83
501,33	137,85
501,43	33,90
501,54	-72,31
501,64	74,57
501,74	128,81
501,85	51,98
501,95	-117,51
502,05	-22,60
502,16	33,90
502,26	-54,24
502,37	45,20
502,47	47,46
502,57	74,57
502,68	11,30
502,78	160,45
502,88	183,05
502,99	-67,79
503,09	85,87
503,19	85,87
503,30	-33,90
503,40	-131,07
503,50	83,61
503,61	9,04
503,71	0,00
503,81	-11,30
503,92	212,42
504,02	-13,56
504,12	241,80
504,23	-85,87
504,33	122,03
504,43	-76,83
504,54	171,75
504,64	97,17
504,74	-128,81
504,84	210,16
504,95	-103,95
505,05	101,69
505,15	65,53
505,26	-4,52
505,36	-142,37
505,46	225,98
505,56	85,87
505,67	-49,72
505,77	38,42
505,87	106,21
505,98	70,05
506,08	-131,07
506,18	345,75
506,28	-18,08
506,39	119,77
506,49	117,51
506,59	20,34
506,70	205,64
506,80	108,47
506,90	-51,98
507,00	15,82
507,11	-18,08
507,21	101,69
507,31	-11,30
507,41	58,76
507,52	9,04
507,62	230,50
507,72	-51,98
507,82	24,86
507,93	88,13
508,03	88,13
508,13	164,97
508,23	135,59
508,34	225,98
508,44	13,56
508,54	-131,07
508,64	-97,17
508,74	115,25
508,85	90,39
508,95	-56,50
509,05	196,60
509,15	70,05
509,26	-15,82
509,36	18,08
509,46	239,54
509,56	106,21
509,66	45,20
509,77	158,19
509,87	137,85
509,97	271,18
510,07	79,09
510,17	92,65
510,28	214,68
510,38	76,83
510,48	192,09
510,58	142,37
510,68	-20,34
510,78	101,69
510,89	128,81
510,99	103,95
511,09	250,84
511,19	33,90
511,29	70,05
511,39	-9,04
511,50	72,31
511,60	108,47
511,70	180,79
511,80	128,81
511,90	-142,37
512,00	99,43
512,11	508,46
512,21	149,15
512,31	131,07
512,41	49,72
512,51	189,83
512,61	13,56
512,71	650,83
512,82	-54,24
512,92	160,45
513,02	72,31
513,12	210,16
513,22	11,30
513,32	45,20
513,42	250,84
513,53	248,58
513,63	164,97
513,73	164,97
513,83	142,37
513,93	-83,61
514,03	-6,78
514,13	377,39
514,23	149,15
514,33	357,05
514,44	110,73
514,54	264,40
514,64	327,68
514,74	-2,26
514,84	151,41
514,94	203,38
515,04	158,19
515,14	164,97
515,24	192,09
515,34	126,55
515,44	300,56
515,55	241,80
515,65	90,39
515,75	223,72
515,85	0,00
515,95	461,00
516,05	336,71
516,15	11,30
516,25	284,74
516,35	185,31
516,45	144,63
516,55	262,14
516,65	210,16
516,75	171,75
516,85	424,85
516,95	508,46
517,05	135,59
517,16	289,26
517,26	354,79
517,36	239,54
517,46	336,71
517,56	230,50
517,66	228,24
517,76	92,65
517,86	248,58
517,96	54,24
518,06	287,00
518,16	320,90
518,26	296,04
518,36	158,19
518,46	230,50
518,56	354,79
518,66	363,83
518,76	287,00
518,86	155,93
518,96	74,57
519,06	219,20
519,16	492,64
519,26	1663,23
519,36	379,65
519,46	474,56
519,56	558,18
519,66	171,75
519,76	470,04
519,86	623,71
519,96	515,24
520,06	458,74
520,16	659,87
520,26	454,23
520,36	309,60
520,46	402,25
520,56	517,50
520,66	160,45
520,76	350,27
520,86	246,32
520,96	449,71
521,06	298,30
521,16	397,73
521,26	524,28
521,35	409,03
521,45	555,92
521,55	343,49
521,65	379,65
521,75	716,37
521,85	542,36
521,95	648,57
522,05	601,11
522,15	515,24
522,25	451,97
522,35	630,49
522,45	481,34
522,55	440,67
522,65	415,81
522,75	614,67
522,85	682,47
522,94	596,59
523,04	436,15
523,14	707,33
523,24	738,96
523,34	485,86
523,44	562,70
523,54	628,23
523,64	605,63
523,74	580,78
523,84	644,05
523,94	479,08
524,03	474,56
524,13	375,13
524,23	497,16
524,33	246,32
524,43	370,61
524,53	257,62
524,63	126,55
524,73	11,30
524,83	94,91
524,92	-103,95
525,02	18,08
525,12	112,99
525,22	-88,13
525,32	15,82
525,42	99,43
525,52	-126,55
525,61	47,46
525,71	-115,25
525,81	311,86
525,91	257,62
526,01	207,90
526,11	176,27
526,21	-4,52
526,30	214,68
526,40	131,07
526,50	51,98
526,60	-61,02
526,70	-51,98
526,80	61,02
526,89	-13,56
526,99	85,87
527,09	183,05
527,19	-323,16
527,29	-88,13
527,39	124,29
527,48	18,08
527,58	133,33
527,68	203,38
527,78	-70,05
527,88	47,46
527,97	-225,98
528,07	-65,53
528,17	-140,11
528,27	178,53
528,37	-119,77
528,46	1830,46
528,56	228,24
528,66	67,79
528,76	-83,61
528,86	185,31
528,95	20,34
529,05	13,56
529,15	-22,60
529,25	-268,92
529,35	-56,50
529,44	-40,68
529,54	76,83
529,64	140,11
529,74	31,64
529,83	169,49
529,93	20,34
530,03	117,51
530,13	-58,76
530,22	174,01
530,32	126,55
530,42	-18,08
530,52	88,13
530,61	-76,83
530,71	223,72
530,81	54,24
530,91	27,12
531,00	180,79
531,10	144,63
531,20	273,44
531,30	230,50
531,39	628,23
531,49	793,20
531,59	481,34
531,69	1276,80
531,78	1534,42
531,88	1642,89
531,98	1844,02
532,07	1353,64
532,17	1568,32
532,27	1066,64
532,37	603,37
532,46	404,51
532,56	413,55
532,66	287,00
532,75	99,43
532,85	9,04
532,95	-54,24
533,04	-117,51
533,14	196,61
533,24	-153,67
533,34	117,51
533,43	153,67
533,53	92,65
533,63	131,07
533,72	85,87
533,82	119,77
533,92	47,46
534,01	201,12
534,11	205,64
534,21	-94,91
534,30	27,12
534,40	343,49
534,50	90,39
534,59	115,25
534,69	29,38
534,79	-119,77
534,88	309,60
534,98	318,64
535,08	94,91
535,17	97,17
535,27	-15,82
535,36	-54,24
535,46	18,08
535,56	61,02
535,65	-54,24
535,75	110,73
535,85	-85,87
535,94	110,73
536,04	122,03
536,14	142,37
536,23	-49,72
536,33	250,84
536,42	-2,26
536,52	-61,02
536,62	108,47
536,71	-151,41
536,81	31,64
536,90	9,04
537,00	-45,20
537,10	-189,83
537,19	192,09
537,29	79,09
537,38	-20,34
537,48	589,81
537,58	183,05
537,67	185,31
537,77	-24,86
537,86	196,61
537,96	345,75
538,06	-45,20
538,15	492,64
538,25	45,20
538,34	126,55
538,44	74,57
538,53	230,50
538,63	119,77
538,73	431,63
538,82	368,35
538,92	668,91
539,01	264,40
539,11	621,45
539,20	790,94
539,30	795,46
539,39	908,45
539,49	1118,61
539,59	1749,11
539,68	2149,10
539,78	2397,68
539,87	2194,29
539,97	2402,20
540,06	2546,83
540,16	2519,71
540,25	2858,68
540,35	2944,56
540,44	2621,40
540,54	3179,58
540,63	3319,69
540,73	2933,26
540,82	3197,66
540,92	3421,38
541,01	3663,18
541,11	3977,30
541,20	3846,23
541,30	4234,92
541,39	4225,88
541,49	4377,29
541,58	4768,24
541,68	4492,54
541,77	4422,48
541,87	4506,10
541,96	4533,21
542,06	4955,80
542,15	4944,50
542,25	-5649,57
542,34	4684,62
542,44	4808,91
542,53	5104,95
542,63	5629,23
542,72	5123,03
542,82	5324,15
542,91	5125,29
543,01	5113,99
543,10	5346,75
543,20	5364,83
543,29	5159,19
543,38	5195,34
543,48	5448,44
543,57	5367,09
543,67	5281,22
543,76	5604,37
543,86	5791,94
543,95	6361,41
544,05	6135,43
544,14	6252,94
544,23	5859,73
544,33	6011,14
544,42	6472,15
544,52	6210,01
544,61	6126,39
544,71	6553,50
544,80	6515,08
544,89	6259,72
544,99	6578,36
545,08	6097,01
545,18	5579,51
545,27	6185,15
545,36	5828,10
545,46	5755,78
545,55	5986,28
545,65	5816,80
545,74	5898,15
545,84	5999,84
545,93	6230,34
546,02	6060,86
546,12	6273,28
546,21	5864,25
546,30	5954,65
546,40	5873,29
546,49	5645,05
546,59	6332,04
546,68	5814,54
546,77	6243,90
546,87	5828,10
546,96	5805,50
547,05	5755,78
547,15	5647,31
547,24	6139,95
547,34	5974,98
547,43	5952,39
547,52	6318,48
547,62	6169,33
547,71	6013,40
547,80	6178,37
547,90	5997,58
547,99	6295,88
548,08	6207,75
548,18	5773,86
548,27	6085,72
548,36	6142,21
548,46	5936,57
548,55	6835,98
548,64	6137,69
548,74	6381,75
548,83	5999,84
548,92	6610,00
549,02	6280,06
549,11	6352,38
549,20	6372,71
549,30	6153,51
549,39	6548,98
549,48	6406,61
549,58	5848,43
549,67	6146,73
549,76	5977,24
549,85	6112,83
549,95	6126,39
550,04	6295,88
550,13	5999,84
550,23	6476,67
550,32	6261,98
550,41	6451,81
550,50	6612,26
550,60	6350,12
550,69	6137,69
550,78	6266,50
550,88	6569,32
550,97	6404,35
551,06	6368,19
551,15	6158,03
551,25	6558,02
551,34	5900,41
551,43	6237,12
551,52	6569,32
551,62	6426,95
551,71	6741,07
551,80	6178,37
551,89	6266,50
551,99	5988,54
552,08	6092,50
552,17	5923,01
552,26	6293,62
552,36	5993,06
552,45	6309,44
552,54	6033,74
552,63	6198,71
552,73	6487,96
552,82	6912,81
552,91	6356,90
553,00	6659,71
553,10	6300,40
553,19	6467,63
553,28	6214,53
553,37	5231,50
553,46	6124,13
553,56	6454,07
553,65	6210,01
553,74	6176,11
553,83	6537,68
553,92	6682,31
554,02	6460,85
554,11	6243,90
554,20	6054,08
554,29	6560,28
554,38	6060,86
554,48	6316,22
554,57	6316,22
554,66	6286,84
554,75	6476,67
554,84	6237,12
554,94	6327,52
555,03	6139,95
555,12	6309,44
555,21	6119,61
555,30	6621,29
555,39	6083,46
555,49	6363,67
555,58	6671,01
555,67	6657,45
555,76	6582,88
555,85	6280,06
555,94	6304,92
556,03	6555,76
556,13	6435,99
556,22	6255,20
556,31	6447,29
556,40	6083,46
556,49	6625,81
556,58	6067,64
556,67	6325,26
556,77	6327,52
556,86	6530,90
556,95	6372,71
557,04	6869,88
557,13	6944,45
557,22	6928,63
557,31	6790,78
557,40	7143,32
557,50	7929,73
557,59	7290,20
557,68	7952,33
557,77	8526,33
557,86	8252,89
557,95	8266,45
558,04	8562,49
558,13	8609,94
558,22	7929,74
558,31	7699,23
558,41	7183,99
558,50	7285,68
558,59	7003,21
558,68	6969,31
558,77	6720,73
558,86	6101,53
558,95	6420,17
559,04	6560,28
559,13	6031,48
559,22	6042,78
559,31	6133,17
559,40	5909,45
559,49	0,00
559,59	6553,50
559,68	5706,06
559,77	6099,27
559,86	5764,82
559,95	5819,06
560,04	5916,23
560,13	5936,57
560,22	6494,74
560,31	5676,69
560,40	5834,87
560,49	5538,84
560,58	5721,88
560,67	5678,95
560,76	5735,44
560,85	5651,83
560,94	6092,50
561,03	5663,13
561,12	6004,36
561,21	6454,07
561,30	5606,63
561,39	5626,97
561,48	5834,87
561,57	5608,89
561,66	6148,99
561,75	6476,67
561,84	6128,65
561,93	5437,15
562,02	6094,75
562,11	5690,25
562,20	5683,47
562,29	6047,30
562,38	6015,66
562,47	6286,84
562,56	6447,29
562,65	6239,38
562,74	6779,48
562,83	7077,78
562,92	7376,08
563,01	7525,23
563,10	7486,81
563,19	7805,44
563,28	8017,87
563,37	7717,31
563,46	7215,63
563,55	7482,29
563,64	7287,94
563,73	6456,33
563,82	7019,02
563,91	6567,06
564,00	6413,39
564,09	6293,62
564,18	6524,12
564,27	6167,07
564,35	6650,67
564,44	6354,64
564,53	6761,40
564,62	6379,49
564,71	6393,05
564,80	6230,34
564,89	5993,06
564,98	-18295,56
565,07	4020,23
565,16	5568,22
565,25	5369,35
565,34	2042,88
565,43	6881,17
565,51	5333,19
565,60	5710,58
565,69	5113,99
565,78	5523,02
565,87	4926,42
565,96	5473,30
566,05	5290,26
566,14	5226,98
566,23	5190,82
566,32	5240,54
566,40	5141,11
566,49	5233,76
566,58	4786,31
566,67	4901,57
566,76	5007,78
566,85	4799,87
566,94	5181,78
567,03	4824,73
567,11	4883,49
567,20	4901,57
567,29	4759,20
567,38	5014,56
567,47	4352,43
567,56	4675,58
567,65	4806,65
567,73	4433,78
567,82	4433,78
567,91	4799,87
568,00	4483,50
568,09	3669,96
568,18	4239,44
568,27	4716,26
568,35	4734,34
568,44	4530,95
568,53	4501,58
568,62	4582,93
568,71	4650,73
568,80	4298,19
568,88	5014,56
568,97	4691,40
569,06	4363,73
569,15	4808,91
569,24	4639,43
569,32	4648,47
569,41	4463,16
569,50	4314,01
569,59	4458,64
569,68	4671,06
569,76	4677,84
569,85	4946,76
569,94	4788,57
570,03	4901,57
570,12	5071,05
570,20	5012,30
570,29	4971,62
570,38	5416,81
570,47	5697,03
570,56	5154,67
570,64	5129,81
570,73	5125,29
570,82	5324,15
570,91	5294,78
570,99	4915,13
571,08	4727,56
571,17	4652,98
571,26	4637,17
571,34	4467,68
571,43	4472,20
571,52	4395,36
571,61	-725,40
571,69	3758,09
571,78	4234,92
571,87	4280,11
571,96	4246,22
572,04	4408,92
572,13	4142,26
572,22	4151,30
572,31	3923,06
572,39	4144,52
572,48	4065,43
572,57	3911,76
572,66	3893,68
572,74	4024,75
572,83	4336,61
572,92	4067,69
573,00	3972,78
573,09	4128,70
573,18	4176,16
573,27	4388,59
573,35	3997,63
573,44	3925,32
573,53	3988,60
573,61	3891,42
573,70	4991,96
573,79	4011,19
573,87	4178,42
573,96	3902,72
574,05	3986,34
574,14	4250,74
574,22	4083,51
574,31	4162,60
574,40	3943,40
574,48	4341,13
574,57	4182,94
574,66	4187,46
574,74	4221,36
574,83	4338,87
574,92	4379,55
575,00	4469,94
575,09	4831,51
575,18	4399,88
575,26	4817,95
575,35	4549,03
575,43	4469,94
575,52	4786,31
575,61	5064,27
575,69	5156,93
575,78	5032,64
575,87	6040,52
575,95	5794,20
576,04	6101,53
576,13	6589,66
576,21	7159,13
576,30	7355,74
576,38	7154,61
576,47	7595,28
576,56	7333,14
576,64	6883,43
576,73	7043,88
576,82	6040,52
576,90	5972,72
576,99	6171,59
577,07	5719,62
577,16	5489,12
577,25	5003,26
577,33	4892,53
577,42	4700,44
577,50	4605,53
577,59	4675,58
577,68	4951,28
577,76	4368,25
577,85	3995,38
577,93	4203,28
578,02	3972,78
578,10	3798,77
578,19	3715,16
578,28	3649,62
578,36	3816,85
578,45	3464,32
578,53	3538,89
578,62	3448,50
578,70	3480,13
578,79	3611,20
578,88	3319,69
578,96	3220,25
579,05	3301,61
579,13	3299,35
579,22	3256,41
579,30	3050,77
579,39	3217,99
579,47	3509,51
579,56	2962,63
579,64	3016,87
579,73	2716,31
579,82	2872,24
579,90	2682,42
579,99	3068,85
580,07	3068,85
580,16	2953,59
580,24	2958,11
580,33	2761,51
580,41	2992,01
580,50	2745,69
580,58	2524,23
580,67	2723,09
580,75	2711,79
580,84	2682,42
580,92	2519,71
581,01	3297,09
581,09	2876,76
581,18	2524,23
581,26	2578,46
581,35	2488,07
581,43	3028,17
581,52	2718,57
581,60	2926,48
581,69	2838,34
581,77	2621,40
581,86	3039,47
581,94	2689,19
582,02	5669,91
582,11	2763,77
582,19	2842,86
582,28	2741,17
582,36	2395,42
582,45	2610,10
582,53	2494,85
582,62	2603,32
582,70	2323,10
582,79	2650,78
582,87	2350,22
582,96	2463,21
583,04	2549,09
583,12	2164,91
583,21	2357,00
583,29	2433,83
583,38	2621,40
583,46	2311,80
583,55	2508,41
583,63	2399,94
583,71	2418,02
583,80	2395,42
583,88	2388,64
583,97	2216,89
584,05	2479,03
584,13	2623,66
584,22	2488,07
584,30	2300,50
584,39	2531,01
584,47	2180,73
584,55	2207,85
584,64	2458,69
584,72	2357,00
584,81	2350,22
584,89	2280,17
584,97	2501,63
585,06	2264,35
585,14	2255,31
585,23	2347,96
585,31	2144,58
585,39	2221,41
585,48	2386,38
585,56	2212,37
585,64	2083,56
585,73	2158,14
585,81	2244,01
585,90	2442,87
585,98	2187,51
586,06	2112,94
586,15	2375,08
586,23	2097,12
586,31	2420,28
586,40	2058,70
586,48	1943,45
586,56	2137,80
586,65	2219,15
586,73	2042,88
586,81	2334,40
586,90	2103,90
586,98	2259,83
587,06	2038,36
587,15	2024,81
587,23	2135,54
587,31	2164,91
587,40	1778,48
587,48	1997,69
587,56	2402,20
587,65	2162,66
587,73	2117,46
587,81	2108,42
587,90	2063,22
587,98	1925,37
588,06	1898,26
588,14	2008,99
588,23	1803,34
588,31	1950,23
588,39	2070,00
588,48	2049,66
588,56	1681,31
588,64	1762,67
588,72	1839,50
588,81	1884,70
588,89	1923,11
588,97	1963,79
589,06	1923,11
589,14	1789,78
589,22	2006,73
589,30	1816,90
589,39	1703,91
589,47	1751,37
589,55	2230,45
589,63	1480,19
589,72	1649,67
589,80	1803,34
589,88	2060,96
589,96	2060,96
590,05	1850,80
590,13	1846,28
590,21	2110,68
590,29	2140,06
590,38	1588,66
590,46	1658,71
590,54	1801,08
590,62	1839,50
590,71	1866,62
590,79	2045,14
590,87	1699,39
590,95	1724,25
591,03	1850,80
591,12	1783,00
591,20	1737,81
591,28	1884,70
591,36	1778,48
591,44	1584,14
591,53	1525,38
591,61	1857,58
591,69	1886,96
591,77	1740,07
591,85	1785,26
591,94	1762,67
592,02	1787,52
592,10	2029,33
592,18	2056,44
592,26	1599,96
592,34	1656,45
592,43	1683,57
592,51	1857,58
592,59	1724,25
592,67	1719,73
592,75	1789,78
592,84	1654,19
592,92	1654,19
593,00	1615,78
593,08	1615,78
593,16	1767,19
593,24	1830,46
593,32	1834,98
593,41	1638,38
593,49	1523,12
593,57	1724,25
593,65	1629,34
593,73	1649,67
593,81	1706,17
593,89	1568,32
593,98	1762,67
594,06	1624,82
594,14	1886,96
594,22	1792,04
594,30	1581,88
594,38	1735,55
594,46	1783,00
594,54	1552,50
594,62	1785,26
594,71	1844,02
594,79	1701,65
594,87	1482,45
594,95	1638,37
595,03	1773,96
595,11	1642,89
595,19	1502,79
595,27	1378,49
595,35	1385,27
595,43	1563,80
595,52	1527,64
595,60	1593,18
595,68	1448,55
595,76	1523,12
595,84	1446,29
595,92	1780,74
596,00	1792,04
596,08	1640,63
596,16	1552,50
596,24	1299,40
596,32	1405,61
596,40	1419,17
596,48	1516,34
596,56	1527,64
596,64	1471,15
596,73	-3109,52
596,81	1380,75
596,89	1389,79
596,97	1333,30
597,05	1541,20
597,13	1466,63
597,21	1520,86
597,29	1432,73
597,37	1538,94
597,45	1218,05
597,53	1258,72
597,61	1624,82
597,69	1875,66
597,77	1493,75
597,85	1362,68
597,93	1665,49
598,01	1245,16
598,09	1726,51
598,17	1432,73
598,25	1672,27
598,33	1498,27
598,41	1410,13
598,49	1387,53
598,57	1270,02
598,65	1270,02
598,73	1450,81
598,81	1563,80
598,89	1292,62
598,97	1636,12
599,05	1593,18
599,13	1480,19
599,21	1609,00
599,29	1213,53
599,37	1455,33
599,45	1500,53
599,53	1333,30
599,61	985,28
599,69	1301,66
599,77	1423,69
599,85	1136,69
599,93	1493,75
600,00	1335,56
600,08	1462,11
600,16	1394,31
600,24	1414,65
600,32	1328,78
600,40	1319,74
600,48	1290,36
600,56	1120,87
600,64	1242,91
600,72	1392,05
600,80	1344,60
600,88	1523,12
600,96	1335,56
601,04	1317,48
601,12	1190,93
601,19	1369,46
601,27	1283,58
601,35	1120,87
601,43	1303,92
601,51	1407,87
601,59	1403,35
601,67	1423,69
601,75	1177,37
601,83	1466,63
601,91	1209,01
601,98	1091,50
602,06	1685,83
602,14	1312,96
602,22	1292,62
602,30	1367,20
602,38	1538,94
602,46	1337,82
602,54	1116,35
602,61	1401,09
602,69	1468,89
602,77	1317,48
602,85	1290,36
602,93	1335,56
603,01	1590,92
603,09	1247,42
603,17	1118,61
603,24	1197,71
603,32	1111,84
603,40	1172,85
603,48	1066,64
603,56	1220,31
603,64	1204,49
603,71	1215,79
603,79	1328,78
603,87	1120,87
603,95	1721,99
604,03	1161,55
604,11	1310,70
604,18	1222,57
604,26	1260,98
604,34	1089,24
604,42	1344,60
604,50	1240,65
604,57	1181,89
604,65	1123,13
604,73	1213,53
604,81	-858,73
604,89	1125,39
604,96	1053,08
605,04	1082,46
605,12	1326,52
605,20	1355,90
605,28	1378,49
605,35	1206,75
605,43	1301,66
605,51	1138,95
605,59	1157,03
605,67	1084,72
605,74	1089,24
605,82	1218,05
605,90	1157,03
605,98	1292,62
606,05	1044,04
606,13	1303,92
606,21	1362,68
606,29	1071,16
606,36	910,71
606,44	1197,71
606,52	876,81
606,60	1096,02
606,67	1129,91
606,75	1136,69
606,83	856,47
606,91	1120,87
606,98	1005,62
607,06	1157,03
607,14	1299,40
607,22	1096,02
607,29	1086,98
607,37	976,25
607,45	1012,40
607,52	1003,36
607,60	1177,37
607,68	1077,94
607,76	971,73
607,83	973,99
607,91	1032,74
607,99	1102,80
608,06	1251,94
608,14	1145,73
608,22	1102,80
608,30	863,25
608,37	1041,78
608,45	944,61
608,53	960,43
608,60	1283,58
608,68	1062,12
608,76	1114,09
608,83	1021,44
608,91	951,39
608,99	892,63
609,06	998,84
609,14	1066,64
609,22	953,65
609,29	775,12
609,37	840,66
609,45	820,32
609,52	856,47
609,60	1028,22
609,68	1032,74
609,75	919,75
609,83	897,15
609,91	894,89
609,98	824,84
610,06	883,59
610,13	1105,06
610,21	992,06
610,29	980,77
610,36	842,92
610,44	940,09
610,52	1134,43
610,59	946,87
610,67	944,61
610,74	1016,92
610,82	994,32
610,90	946,87
610,97	897,15
611,05	1003,36
611,13	795,46
611,20	1209,01
611,28	998,84
611,35	992,06
611,43	1132,17
611,51	883,59
611,58	955,91
611,66	881,33
611,73	820,32
611,81	901,67
611,88	953,65
611,96	994,32
612,04	799,98
612,11	815,80
612,19	1077,94
612,26	820,32
612,34	1118,61
612,41	967,21
612,49	951,39
612,57	836,14
612,64	985,28
612,72	1105,06
612,79	1134,43
612,87	842,92
612,94	890,37
613,02	985,28
613,09	1091,50
613,17	1102,80
613,24	931,05
613,32	788,68
613,40	677,95
613,47	890,37
613,55	860,99
613,62	1064,38
613,70	858,73
613,77	754,78
613,85	766,08
613,92	646,31
614,00	919,75
614,07	903,93
614,15	752,52
614,22	786,42
614,30	698,29
614,37	883,59
614,45	860,99
614,52	662,13
614,60	885,85
614,67	847,44
614,75	786,42
614,82	860,99
614,90	892,63
614,97	804,50
615,05	872,29
615,12	870,03
615,20	727,66
615,27	682,47
615,34	915,23
615,42	919,75
615,49	829,36
615,57	759,30
615,64	537,84
615,72	790,94
615,79	881,33
615,87	851,95
615,94	786,42
616,02	727,66
616,09	775,12
616,16	693,77
616,24	786,42
616,31	820,32
616,39	910,71
616,46	912,97
616,54	879,07
616,61	1019,18
616,68	822,58
616,76	754,78
616,83	822,58
616,91	705,07
616,98	718,63
617,06	1082,46
617,13	838,40
617,20	750,26
617,28	815,80
617,35	824,84
617,43	933,31
617,50	748,00
617,57	720,88
>>>>>End Processed Spectral Data<<<<<
