SpectraSuite Datei
++++++++++++++++++++++++++++++++++++
Datum: Wed Apr 14 18:38:05 CEST 2021
Benutzer: Student
Dark-Spektrum vorhanden: Ja
Referenz-Spektrum vorhanden: Nein
Zahl der probierten Teilspektren: 1
Spektrometer: USB2+H04734
Integrationszeit (usec): 65000000 (USB2+H04734)
Spektren Durchschnitt berechnet: 1 (USB2+H04734)
Boxcar Glättung: 0 (USB2+H04734)
Dunkelstromkorrektur: Nein (USB2+H04734)
Puls/Lampe aktiviert: Nein (USB2+H04734)
Correct for Detector Non-linearity: Nein (USB2+H04734)
Streulichtkorrektur: Nein (USB2+H04734)
Anzahl Pixel in verarbeitetem Spektrum: 2048
>>>>>Begin Processed Spectral Data<<<<<
418,45	18,08
418,57	18,08
418,69	18,08
418,80	-49,72
418,92	9,04
419,04	-94,91
419,16	58,76
419,28	110,73
419,40	-40,68
419,52	-15,82
419,64	232,76
419,75	230,50
419,87	-18,08
419,99	-115,25
420,11	33,90
420,23	-18,08
420,35	-183,05
420,47	-33,90
420,58	51,98
420,70	-24,86
420,82	45,20
420,94	119,77
421,06	207,90
421,18	-137,85
421,29	61,02
421,41	187,57
421,53	275,70
421,65	323,16
421,77	101,69
421,89	-42,94
422,00	-235,02
422,12	-56,50
422,24	178,53
422,36	-223,72
422,48	-108,47
422,59	-158,19
422,71	-230,50
422,83	-18,08
422,95	-126,55
423,07	67,79
423,18	-92,65
423,30	-49,72
423,42	76,83
423,54	-214,68
423,66	13,56
423,77	0,00
423,89	70,05
424,01	-259,88
424,13	-42,94
424,25	20,34
424,36	-61,02
424,48	151,41
424,60	6,78
424,72	126,55
424,84	203,38
424,95	128,81
425,07	-124,29
425,19	-350,27
425,31	54,24
425,42	108,47
425,54	-85,87
425,66	124,29
425,78	51,98
425,89	58,76
426,01	110,73
426,13	119,77
426,25	-29,38
426,36	-4,52
426,48	-31,64
426,60	-40,68
426,72	221,46
426,83	253,10
426,95	-176,27
427,07	205,64
427,19	65,53
427,30	51,98
427,42	47,46
427,54	-133,33
427,66	155,93
427,77	112,99
427,89	-253,10
428,01	-106,21
428,12	-180,79
428,24	-22,60
428,36	63,28
428,48	169,49
428,59	24,86
428,71	54,24
428,83	76,83
428,94	-49,72
429,06	-88,13
429,18	29,38
429,30	103,95
429,41	-51,98
429,53	-345,75
429,65	-74,57
429,76	49,72
429,88	4,52
430,00	225,98
430,11	-72,31
430,23	45,20
430,35	-31,64
430,47	-20,34
430,58	56,50
430,70	-24,86
430,82	63,28
430,93	-33,90
431,05	314,12
431,17	58,76
431,28	-42,94
431,40	24,86
431,52	-15,82
431,63	-101,69
431,75	51,98
431,87	162,71
431,98	-47,46
432,10	-15,82
432,22	216,94
432,33	-257,62
432,45	-67,79
432,56	214,68
432,68	88,13
432,80	51,98
432,91	248,58
433,03	-187,57
433,15	47,46
433,26	-101,69
433,38	79,09
433,50	74,57
433,61	192,09
433,73	158,19
433,84	-158,19
433,96	-13,56
434,08	38,42
434,19	-101,69
434,31	6,78
434,43	-232,76
434,54	144,63
434,66	-74,57
434,77	-133,33
434,89	131,07
435,01	-54,24
435,12	81,35
435,24	-90,39
435,35	115,25
435,47	-140,11
435,59	-36,16
435,70	108,47
435,82	4,52
435,93	140,11
436,05	-76,83
436,17	65,53
436,28	-131,07
436,40	235,02
436,51	70,05
436,63	-164,97
436,74	-79,09
436,86	-85,87
436,98	235,02
437,09	101,69
437,21	-122,03
437,32	196,60
437,44	13,56
437,55	18,08
437,67	350,27
437,79	42,94
437,90	122,03
438,02	-85,87
438,13	63,28
438,25	-235,02
438,36	-225,98
438,48	13,56
438,59	-228,24
438,71	36,16
438,83	128,81
438,94	-9,04
439,06	-24,86
439,17	117,51
439,29	158,19
439,40	79,09
439,52	63,28
439,63	-31,64
439,75	119,77
439,86	18,08
439,98	0,00
440,09	-56,50
440,21	-49,72
440,32	-203,38
440,44	-51,98
440,55	83,61
440,67	-63,28
440,78	-65,53
440,90	-67,79
441,01	-119,77
441,13	-76,83
441,24	-135,59
441,36	207,90
441,47	180,79
441,59	-192,09
441,70	-24,86
441,82	-183,05
441,93	196,60
442,05	-54,24
442,16	-94,91
442,28	-6,78
442,39	61,02
442,51	194,35
442,62	160,45
442,74	-189,83
442,85	-368,35
442,97	83,61
443,08	-183,05
443,20	65,53
443,31	70,05
443,43	-183,05
443,54	40,68
443,66	-79,09
443,77	131,07
443,88	-40,68
444,00	-101,69
444,11	-110,73
444,23	20,34
444,34	112,99
444,46	-230,50
444,57	-18,08
444,69	-289,26
444,80	110,73
444,91	228,24
445,03	85,87
445,14	81,35
445,26	-151,41
445,37	83,61
445,49	-110,73
445,60	94,91
445,71	-232,76
445,83	108,47
445,94	117,51
446,06	-185,31
446,17	-327,67
446,29	158,19
446,40	-27,12
446,51	228,24
446,63	85,87
446,74	45,20
446,86	-11,30
446,97	207,90
447,08	-49,72
447,20	-155,93
447,31	-51,98
447,43	-54,24
447,54	-2,26
447,65	54,24
447,77	-79,09
447,88	-210,16
448,00	47,46
448,11	88,13
448,22	101,69
448,34	122,03
448,45	22,60
448,56	38,42
448,68	-33,90
448,79	282,48
448,90	-27,12
449,02	-92,65
449,13	108,47
449,25	-112,99
449,36	-31,64
449,47	-122,03
449,59	-110,73
449,70	33,90
449,81	94,91
449,93	126,55
450,04	137,85
450,15	-183,05
450,27	-74,57
450,38	81,35
450,49	-27,12
450,61	-205,64
450,72	108,47
450,83	-76,83
450,95	126,55
451,06	-15,82
451,17	72,31
451,29	61,02
451,40	18,08
451,51	-9,04
451,63	-42,94
451,74	40,68
451,85	-212,42
451,97	9,04
452,08	-65,53
452,19	-4,52
452,31	-257,62
452,42	51,98
452,53	45,20
452,65	13,56
452,76	54,24
452,87	241,80
452,98	38,42
453,10	24,86
453,21	94,91
453,32	45,20
453,44	20,34
453,55	29,38
453,66	15,82
453,77	29,38
453,89	142,37
454,00	-153,67
454,11	9,04
454,23	-155,93
454,34	72,31
454,45	-29,38
454,56	-180,79
454,68	-463,26
454,79	-65,53
454,90	-239,54
455,01	-103,95
455,13	-47,46
455,24	-336,71
455,35	11,30
455,46	13,56
455,58	-42,94
455,69	90,39
455,80	149,15
455,91	-38,42
456,03	237,28
456,14	-164,97
456,25	149,15
456,36	-51,98
456,48	-106,21
456,59	-341,23
456,70	-31,64
456,81	-99,43
456,92	-108,47
457,04	-49,72
457,15	-325,42
457,26	97,17
457,37	-15,82
457,49	-18,08
457,60	47,46
457,71	-79,09
457,82	70,05
457,93	-126,55
458,05	29,38
458,16	-122,03
458,27	108,47
458,38	-83,61
458,49	-94,91
458,61	-15,82
458,72	-277,96
458,83	70,05
458,94	-72,31
459,05	128,81
459,17	122,03
459,28	-27,12
459,39	-144,63
459,50	79,09
459,61	-42,94
459,72	27,12
459,84	-76,83
459,95	-9,04
460,06	336,71
460,17	18,08
460,28	54,24
460,39	228,24
460,51	58,76
460,62	97,17
460,73	-198,86
460,84	101,69
460,95	-29,38
461,06	0,00
461,18	-117,51
461,29	210,16
461,40	-22,60
461,51	146,89
461,62	58,76
461,73	-40,68
461,84	232,76
461,96	-18,08
462,07	-115,25
462,18	-67,79
462,29	108,47
462,40	-70,05
462,51	-115,25
462,62	185,31
462,73	-140,11
462,85	393,21
462,96	58,76
463,07	-36,16
463,18	-115,25
463,29	61,02
463,40	99,43
463,51	-2,26
463,62	22,60
463,73	-76,83
463,85	92,65
463,96	-94,91
464,07	-29,38
464,18	31,64
464,29	151,41
464,40	49,72
464,51	-214,68
464,62	15,82
464,73	4,52
464,84	-76,83
464,95	201,12
465,06	-18,08
465,18	137,85
465,29	237,28
465,40	63,28
465,51	56,50
465,62	-284,74
465,73	117,51
465,84	-140,11
465,95	212,42
466,06	83,61
466,17	183,05
466,28	-94,91
466,39	61,02
466,50	33,90
466,61	546,88
466,72	309,60
466,83	27,12
466,95	51,98
467,06	61,02
467,17	40,68
467,28	216,94
467,39	-36,16
467,50	-40,68
467,61	88,13
467,72	27,12
467,83	65,53
467,94	-51,98
468,05	108,47
468,16	-124,29
468,27	-61,02
468,38	27,12
468,49	61,02
468,60	81,35
468,71	167,23
468,82	4,52
468,93	203,38
469,04	15,82
469,15	-70,05
469,26	-65,53
469,37	-6,78
469,48	-205,64
469,59	167,23
469,70	-97,17
469,81	36,16
469,92	-36,16
470,03	198,86
470,14	-40,68
470,25	45,20
470,36	15,82
470,47	88,13
470,58	108,47
470,69	133,33
470,80	219,20
470,91	61,02
471,02	-31,64
471,13	-36,16
471,24	-266,66
471,35	-72,31
471,46	119,77
471,56	51,98
471,67	119,77
471,78	0,00
471,89	-83,61
472,00	-6,78
472,11	169,49
472,22	146,89
472,33	-15,82
472,44	115,25
472,55	-83,61
472,66	49,72
472,77	-124,29
472,88	187,57
472,99	131,07
473,10	-72,31
473,21	65,53
473,32	79,09
473,42	-13,56
473,53	-56,50
473,64	92,65
473,75	158,19
473,86	146,89
473,97	72,31
474,08	27,12
474,19	-393,21
474,30	-183,05
474,41	54,24
474,52	-92,65
474,62	-29,38
474,73	133,33
474,84	246,32
474,95	341,23
475,06	-15,82
475,17	27,12
475,28	-18,08
475,39	-11,30
475,50	-4,52
475,60	293,78
475,71	162,71
475,82	-99,43
475,93	-67,79
476,04	237,28
476,15	228,24
476,26	36,16
476,37	97,17
476,47	-22,60
476,58	-33,90
476,69	-61,02
476,80	-110,73
476,91	-183,05
477,02	-140,11
477,13	-81,35
477,23	-4,52
477,34	-67,79
477,45	-160,45
477,56	-162,71
477,67	61,02
477,78	-74,57
477,89	36,16
477,99	-268,92
478,10	74,57
478,21	88,13
478,32	307,34
478,43	13,56
478,54	72,31
478,64	88,13
478,75	-63,28
478,86	-4,52
478,97	-65,53
479,08	-158,19
479,18	-2099,38
479,29	-338,97
479,40	144,63
479,51	-2,26
479,62	-38,42
479,72	137,85
479,83	45,20
479,94	-63,28
480,05	314,12
480,16	49,72
480,26	38,42
480,37	74,57
480,48	58,76
480,59	15,82
480,70	47,46
480,80	61,02
480,91	9,04
481,02	-158,19
481,13	-36,16
481,24	117,51
481,34	-149,15
481,45	146,89
481,56	149,15
481,67	318,64
481,77	49,72
481,88	11,30
481,99	-225,98
482,10	158,19
482,20	472,30
482,31	119,77
482,42	117,51
482,53	-18,08
482,63	-4,52
482,74	40,68
482,85	88,13
482,96	72,31
483,06	106,21
483,17	-11,30
483,28	63,28
483,39	135,59
483,49	85,87
483,60	-169,49
483,71	33,90
483,81	9,04
483,92	36,16
484,03	-74,57
484,14	-128,81
484,24	70,05
484,35	196,61
484,46	36,16
484,57	-18,08
484,67	-142,37
484,78	4,52
484,89	149,15
484,99	106,21
485,10	-106,21
485,21	124,29
485,31	38,42
485,42	338,97
485,53	-9,04
485,63	31,64
485,74	345,75
485,85	275,70
485,96	21755,36
486,06	379,65
486,17	22,60
486,28	122,03
486,38	-70,05
486,49	-85,87
486,60	-92,65
486,70	-253,10
486,81	51,98
486,92	106,21
487,02	137,85
487,13	-20,34
487,24	112,99
487,34	31,64
487,45	-90,39
487,56	9,04
487,66	81,35
487,77	-1369,46
487,87	99,43
487,98	-81,35
488,09	83,61
488,19	58,76
488,30	29,38
488,41	-94,91
488,51	72,31
488,62	101,69
488,73	296,04
488,83	-22,60
488,94	205,64
489,04	155,93
489,15	24,86
489,26	-90,39
489,36	99,43
489,47	174,01
489,58	-103,95
489,68	-27,12
489,79	-124,29
489,89	56,50
490,00	194,35
490,11	38,42
490,21	-76,83
490,32	33,90
490,42	115,25
490,53	-67,79
490,64	65,53
490,74	-24,86
490,85	56,50
490,95	1141,21
491,06	128,81
491,16	259,88
491,27	56,50
491,38	54,24
491,48	-512,98
491,59	-76,83
491,69	85,87
491,80	-15,82
491,90	142,37
492,01	76,83
492,12	-88,13
492,22	119,77
492,33	128,81
492,43	18,08
492,54	-76,83
492,64	-45,20
492,75	-2,26
492,86	275,70
492,96	-47,46
493,07	-88,13
493,17	-29,38
493,28	54,24
493,38	47,46
493,49	174,01
493,59	81,35
493,70	63,28
493,80	2,26
493,91	-2,26
494,01	90,39
494,12	97,17
494,22	18,08
494,33	27,12
494,43	-92,65
494,54	-162,71
494,64	-22,60
494,75	-112,99
494,86	194,35
494,96	-122,03
495,07	29,38
495,17	-11,30
495,28	-112,99
495,38	54,24
495,49	24,86
495,59	-47,46
495,69	-142,37
495,80	189,83
495,90	-22,60
496,01	-399,99
496,11	72,31
496,22	119,77
496,32	24,86
496,43	207,90
496,53	275,70
496,64	115,25
496,74	-36,16
496,85	-45,20
496,95	296,04
497,06	40,68
497,16	15,82
497,27	-72,31
497,37	61,02
497,48	97,17
497,58	81,35
497,68	167,23
497,79	-38,42
497,89	31,64
498,00	-38,42
498,10	-124,29
498,21	-465,52
498,31	-115,25
498,42	36,16
498,52	-49,72
498,62	-203,38
498,73	79,09
498,83	174,01
498,94	128,81
499,04	97,17
499,15	-49,72
499,25	18,08
499,35	-27,12
499,46	194,35
499,56	92,65
499,67	-15,82
499,77	-94,91
499,87	-38,42
499,98	-9,04
500,08	56,50
500,19	88,13
500,29	-112,99
500,39	-2474,51
500,50	11,30
500,60	-13,56
500,71	-101,69
500,81	-232,76
500,91	33,90
501,02	-58,76
501,12	-305,08
501,22	9,04
501,33	196,60
501,43	-45,20
501,54	205,64
501,64	92,65
501,74	117,51
501,85	131,07
501,95	99,43
502,05	45,20
502,16	72,31
502,26	65,53
502,37	108,47
502,47	257,62
502,57	-22,60
502,68	40,68
502,78	24,86
502,88	31,64
502,99	-9,04
503,09	230,50
503,19	90,39
503,30	40,68
503,40	-153,67
503,50	20,34
503,61	-13,56
503,71	176,27
503,81	-92,65
503,92	-22,60
504,02	302,82
504,12	63,28
504,23	-178,53
504,33	27,12
504,43	-29,38
504,54	-183,05
504,64	11,30
504,74	345,75
504,84	24,86
504,95	-29,38
505,05	29,38
505,15	359,31
505,26	-92,65
505,36	-65,53
505,46	309,60
505,56	174,01
505,67	-103,95
505,77	-11,30
505,87	142,37
505,98	142,37
506,08	-76,83
506,18	131,07
506,28	-29,38
506,39	103,95
506,49	45,20
506,59	-110,73
506,70	67,79
506,80	128,81
506,90	0,00
507,00	176,27
507,11	-4,52
507,21	31,64
507,31	115,25
507,41	-61,02
507,52	198,86
507,62	126,55
507,72	-235,02
507,82	237,28
507,93	88,13
508,03	42,94
508,13	88,13
508,23	126,55
508,34	162,71
508,44	-54,24
508,54	11,30
508,64	-79,09
508,74	149,15
508,85	268,92
508,95	40,68
509,05	137,85
509,15	108,47
509,26	-151,41
509,36	-2,26
509,46	266,66
509,56	219,20
509,66	-20,34
509,77	-67,79
509,87	92,65
509,97	81,35
510,07	24,86
510,17	-38,42
510,28	266,66
510,38	56,50
510,48	4,52
510,58	119,77
510,68	131,07
510,78	58,76
510,89	-88,13
510,99	90,39
511,09	253,10
511,19	300,56
511,29	221,46
511,39	311,86
511,50	-185,31
511,60	-2,26
511,70	277,96
511,80	-6,78
511,90	13,56
512,00	221,46
512,11	320,90
512,21	246,32
512,31	36,16
512,41	-29,38
512,51	81,35
512,61	196,61
512,71	2079,04
512,82	72,31
512,92	350,27
513,02	29,38
513,12	225,98
513,22	144,63
513,32	74,57
513,42	205,64
513,53	11,30
513,63	183,05
513,73	108,47
513,83	51,98
513,93	273,44
514,03	88,13
514,13	210,16
514,23	135,59
514,33	92,65
514,44	239,54
514,54	167,23
514,64	363,83
514,74	144,63
514,84	103,95
514,94	246,32
515,04	-81,35
515,14	117,51
515,24	131,07
515,34	488,12
515,44	436,15
515,55	325,42
515,65	29,38
515,75	237,28
515,85	108,47
515,95	124,29
516,05	192,09
516,15	-49,72
516,25	244,06
516,35	246,32
516,45	76,83
516,55	187,57
516,65	282,48
516,75	212,42
516,85	334,45
516,95	564,96
517,05	264,40
517,16	300,56
517,26	140,11
517,36	117,51
517,46	171,75
517,56	117,51
517,66	277,96
517,76	178,53
517,86	106,21
517,96	40,68
518,06	300,56
518,16	246,32
518,26	411,29
518,36	101,69
518,46	298,30
518,56	266,66
518,66	230,50
518,76	167,23
518,86	198,86
518,96	239,54
519,06	115,25
519,16	451,97
519,26	1733,29
519,36	424,85
519,46	519,76
519,56	388,69
519,66	320,90
519,76	223,72
519,86	528,80
519,96	332,19
520,06	275,70
520,16	196,60
520,26	2653,04
520,36	445,19
520,46	291,52
520,56	216,94
520,66	262,14
520,76	264,40
520,86	366,09
520,96	470,04
521,06	176,27
521,16	332,19
521,26	327,68
521,35	393,21
521,45	472,30
521,55	386,43
521,65	354,79
521,75	488,12
521,85	569,48
521,95	630,49
522,05	368,35
522,15	343,49
522,25	587,56
522,35	562,70
522,45	592,07
522,55	287,00
522,65	296,04
522,75	562,70
522,85	517,50
522,94	510,72
523,04	440,67
523,14	526,54
523,24	673,43
523,34	503,94
523,44	510,72
523,54	427,11
523,64	501,68
523,74	494,90
523,84	510,72
523,94	596,59
524,03	506,20
524,13	379,65
524,23	244,06
524,33	341,23
524,43	393,21
524,53	185,31
524,63	171,75
524,73	-56,50
524,83	112,99
524,92	9,04
525,02	-45,20
525,12	176,27
525,22	135,59
525,32	-42,94
525,42	-42,94
525,52	-83,61
525,61	108,47
525,71	-162,71
525,81	131,07
525,91	29,38
526,01	-81,35
526,11	171,75
526,21	-27,12
526,30	271,18
526,40	162,71
526,50	90,39
526,60	85,87
526,70	20,34
526,80	-198,86
526,89	15,82
526,99	-49,72
527,09	67,79
527,19	-413,55
527,29	-162,71
527,39	171,75
527,48	122,03
527,58	316,38
527,68	198,86
527,78	-103,95
527,88	-323,16
527,97	-219,20
528,07	13,56
528,17	-203,38
528,27	4,52
528,37	-9,04
528,46	51,98
528,56	246,32
528,66	-38,42
528,76	6,78
528,86	241,80
528,95	58,76
529,05	45,20
529,15	-33,90
529,25	-214,68
529,35	29,38
529,44	-83,61
529,54	-40,68
529,64	20,34
529,74	-65,54
529,83	135,59
529,93	-54,24
530,03	176,27
530,13	31,64
530,22	122,03
530,32	-40,68
530,42	-135,59
530,52	15,82
530,61	-196,60
530,71	-15,82
530,81	241,80
530,91	24,86
531,00	131,07
531,10	289,26
531,20	289,26
531,30	22,60
531,39	517,50
531,49	870,03
531,59	786,42
531,69	1482,45
531,78	1597,70
531,88	1642,89
531,98	1604,48
532,07	1407,87
532,17	1005,62
532,27	707,33
532,37	395,47
532,46	372,87
532,56	268,92
532,66	158,19
532,75	223,72
532,85	101,69
532,95	70,05
533,04	51,98
533,14	94,91
533,24	-61,02
533,34	230,50
533,43	101,69
533,53	11,30
533,63	40,68
533,72	88,13
533,82	153,67
533,92	239,54
534,01	63,28
534,11	262,14
534,21	58,76
534,30	131,07
534,40	178,53
534,50	61,02
534,59	20,34
534,69	74,57
534,79	-223,72
534,88	359,31
534,98	183,05
535,08	40,68
535,17	-230,50
535,27	15,82
535,36	-9,04
535,46	183,05
535,56	58,76
535,65	-162,71
535,75	-49,72
535,85	40,68
535,94	24,86
536,04	225,98
536,14	112,99
536,23	158,19
536,33	-51,98
536,42	-6,78
536,52	-144,63
536,62	22,60
536,71	-149,15
536,81	131,07
536,90	36,16
537,00	-76,83
537,10	90,39
537,19	106,21
537,29	81,35
537,38	-15,82
537,48	458,74
537,58	83,61
537,67	230,50
537,77	-88,13
537,86	124,29
537,96	772,86
538,06	2,26
538,15	289,26
538,25	74,57
538,34	24,86
538,44	205,64
538,53	131,07
538,63	74,57
538,73	366,09
538,82	388,69
538,92	456,49
539,01	79,09
539,11	567,22
539,20	393,21
539,30	686,99
539,39	628,23
539,49	851,95
539,59	971,73
539,68	1457,59
539,78	1977,35
539,87	1911,81
539,97	1936,67
540,06	2302,76
540,16	2002,21
540,25	2171,69
540,35	2329,88
540,44	2081,30
540,54	2578,46
540,63	2756,99
540,73	2384,12
540,82	2512,93
540,92	2664,34
541,01	2994,27
541,11	2876,76
541,20	3055,29
541,30	3111,78
541,39	3502,73
541,49	3475,61
541,58	3699,34
541,68	3807,81
541,77	3486,91
541,87	3437,20
541,96	3407,82
542,06	4065,43
542,15	3523,07
542,25	-6835,98
542,34	3554,71
542,44	3636,06
542,53	3828,15
542,63	4384,07
542,72	3855,27
542,82	4029,27
542,91	3884,64
543,01	3821,37
543,10	4024,75
543,20	4171,64
543,29	4194,24
543,38	3803,29
543,48	4289,15
543,57	4153,56
543,67	4149,04
543,76	4243,96
543,86	4384,07
543,95	4813,43
544,05	4704,96
544,14	4876,71
544,23	4530,95
544,33	4347,91
544,42	4863,15
544,52	4625,87
544,61	4616,83
544,71	4813,43
544,80	4759,20
544,89	4567,11
544,99	4919,64
545,08	4601,01
545,18	4207,80
545,27	4637,17
545,36	4784,06
545,46	4528,69
545,55	4781,80
545,65	4542,25
545,74	4709,48
545,84	4506,10
545,93	4716,26
546,02	4668,80
546,12	4849,59
546,21	4564,85
546,30	4404,40
546,40	4526,43
546,49	4257,52
546,59	4878,97
546,68	4707,22
546,77	4759,20
546,87	4741,12
546,96	4490,28
547,05	4643,95
547,15	4476,72
547,24	4743,38
547,34	4533,21
547,43	4662,02
547,52	4646,21
547,62	4463,16
547,71	4802,13
547,80	4562,59
547,90	4743,38
547,99	4519,66
548,08	4571,63
548,18	4517,40
548,27	4865,41
548,36	4693,66
548,46	4451,86
548,55	5037,16
548,64	4732,08
548,74	4745,64
548,83	4524,17
548,92	5046,20
549,02	4675,58
549,11	4788,57
549,20	4840,55
549,30	4567,11
549,39	4854,11
549,48	5057,49
549,58	4293,67
549,67	4892,53
549,76	4826,99
549,85	4467,68
549,95	5028,12
550,04	4702,70
550,13	4429,26
550,23	4732,08
550,32	4546,77
550,41	4707,22
550,50	4917,38
550,60	4610,05
550,69	4506,10
550,78	4623,61
550,88	5068,79
550,97	2858,68
551,06	4745,64
551,15	4768,24
551,25	4784,05
551,34	4474,46
551,43	4928,68
551,52	4892,53
551,62	5104,95
551,71	4955,80
551,80	4454,12
551,89	4639,43
551,99	4510,62
552,08	4388,59
552,17	4354,69
552,26	4978,40
552,36	4399,88
552,45	4582,93
552,54	4582,93
552,63	4664,28
552,73	5016,82
552,82	5172,75
552,91	4689,14
553,00	4971,62
553,10	4427,00
553,19	5041,68
553,28	4535,47
553,37	2160,40
553,46	4442,82
553,56	4662,02
553,65	4580,67
553,74	4652,99
553,83	4921,90
553,92	4799,87
554,02	4639,43
554,11	4467,68
554,20	4569,37
554,29	4985,18
554,38	4564,85
554,48	4793,09
554,57	4759,20
554,66	4621,35
554,75	4741,12
554,84	4582,93
554,94	4860,89
555,03	4406,66
555,12	4693,66
555,21	4562,59
555,30	4851,85
555,39	4614,57
555,49	4655,24
555,58	4867,67
555,67	4763,72
555,76	4657,50
555,85	4630,39
555,94	4506,10
556,03	4671,06
556,13	4860,89
556,22	4508,36
556,31	4621,35
556,40	4458,64
556,49	4716,26
556,58	4483,50
556,67	4503,84
556,77	4655,24
556,86	4743,38
556,95	4763,72
557,04	4973,88
557,13	5123,03
557,22	5120,77
557,31	5010,04
557,40	4675,58
557,50	5290,26
557,59	4973,88
557,68	5349,01
557,77	5834,87
557,86	5622,45
557,95	5764,82
558,04	5527,54
558,13	5703,80
558,22	5206,64
558,31	5256,36
558,41	4930,94
558,50	4845,07
558,59	5276,70
558,68	4684,62
558,77	4793,09
558,86	4411,18
558,95	4237,18
559,04	4571,63
559,13	4539,99
559,22	4415,70
559,31	4395,36
559,40	4671,06
559,49	0,00
559,59	4793,09
559,68	4088,03
559,77	4440,56
559,86	4119,67
559,95	4368,25
560,04	4128,71
560,13	4266,55
560,22	4695,92
560,31	4094,81
560,40	4110,63
560,49	3929,84
560,58	4126,45
560,67	4201,02
560,76	4214,58
560,85	4083,51
560,94	4454,12
561,03	4047,35
561,12	4503,84
561,21	4395,36
561,30	4219,10
561,39	4121,93
561,48	4503,84
561,57	4110,63
561,66	4562,59
561,75	4289,15
561,84	4411,18
561,93	3970,52
562,02	4375,03
562,11	4067,69
562,20	4311,75
562,29	4508,36
562,38	4194,24
562,47	4332,09
562,56	4395,36
562,65	4347,91
562,74	4888,01
562,83	4919,64
562,92	4912,87
563,01	5292,52
563,10	5238,28
563,19	5143,37
563,28	5450,70
563,37	5220,20
563,46	5104,95
563,55	5120,77
563,64	5032,64
563,73	4424,74
563,82	4915,12
563,91	5046,19
564,00	4680,10
564,09	4234,92
564,18	4264,29
564,27	4458,64
564,35	4596,49
564,44	4517,40
564,53	4607,79
564,62	4293,67
564,71	4354,69
564,80	4390,84
564,89	4243,96
564,98	0,00
565,07	4325,31
565,16	3947,92
565,25	3956,96
565,34	-28164,23
565,43	3127,60
565,51	3656,40
565,60	4225,88
565,69	3536,63
565,78	3839,45
565,87	3364,88
565,96	3597,65
566,05	3679,00
566,14	3898,20
566,23	3611,20
566,32	3769,39
566,40	3945,66
566,49	3810,07
566,58	3480,13
566,67	3453,02
566,76	3371,66
566,85	3511,77
566,94	3920,80
567,03	3272,23
567,11	3498,21
567,20	3416,86
567,29	3448,50
567,38	3495,95
567,47	3263,19
567,56	3491,43
567,65	3394,26
567,73	3100,48
567,82	3175,06
567,91	3373,92
568,00	3016,87
568,09	2743,43
568,18	3369,40
568,27	3236,07
568,35	3462,06
568,44	3141,16
568,53	3342,29
568,62	3107,26
568,71	2960,37
568,80	3306,13
568,88	3581,83
568,97	3514,03
569,06	2949,08
569,15	3315,17
569,24	3258,67
569,32	3247,37
569,41	3299,35
569,50	3059,81
569,59	3129,86
569,68	3265,45
569,76	3251,89
569,85	3584,09
569,94	3315,17
570,03	3326,47
570,12	3385,22
570,20	3730,98
570,29	3407,82
570,38	3543,41
570,47	4042,83
570,56	3746,79
570,64	3394,26
570,73	3606,68
570,82	3715,16
570,91	3730,98
570,99	3279,01
571,08	3340,03
571,17	3335,51
571,26	3215,73
571,34	3053,03
571,43	3109,52
571,52	3159,24
571,61	-1798,82
571,69	2779,59
571,78	2933,26
571,87	2910,66
571,96	3231,55
572,04	2985,23
572,13	3161,50
572,22	2919,70
572,31	2781,85
572,39	2992,01
572,48	2768,29
572,57	2818,00
572,66	2827,04
572,74	2958,11
572,83	3100,48
572,92	2804,45
573,00	2741,17
573,09	2928,74
573,18	2953,59
573,27	3288,05
573,35	2790,89
573,44	2756,99
573,53	2906,14
573,61	3032,69
573,70	3694,82
573,79	2702,75
573,87	3181,84
573,96	2720,83
574,05	3093,70
574,14	2815,75
574,22	2702,75
574,31	2723,09
574,40	2824,78
574,48	3170,54
574,57	3030,43
574,66	3043,99
574,74	2858,68
574,83	3082,40
574,92	3109,52
575,00	2775,07
575,09	3303,87
575,18	2903,88
575,26	3448,50
575,35	2883,54
575,43	3100,48
575,52	3260,93
575,61	3125,34
575,69	3362,62
575,78	3346,80
575,87	4135,48
575,95	4017,97
576,04	3837,19
576,13	4223,62
576,21	4646,21
576,30	4869,93
576,38	4677,84
576,47	4953,54
576,56	4655,24
576,64	4284,63
576,73	4259,78
576,82	4284,63
576,90	3866,57
576,99	3954,70
577,07	3803,29
577,16	3730,98
577,25	3459,80
577,33	3321,95
577,42	3089,18
577,50	3220,25
577,59	3272,23
577,68	3367,14
577,76	2856,42
577,85	2752,47
577,93	2777,33
578,02	2915,18
578,10	2610,10
578,19	2705,01
578,28	2309,54
578,36	2540,05
578,45	2332,14
578,53	2253,05
578,62	2176,21
578,70	2555,87
578,79	2508,41
578,88	2277,91
578,96	2219,15
579,05	2375,08
579,13	2531,01
579,22	2244,01
579,30	2194,29
579,39	2438,35
579,47	2503,89
579,56	2207,85
579,64	2395,42
579,73	1986,39
579,82	2038,36
579,90	2133,28
579,99	2117,46
580,07	2065,48
580,16	2081,30
580,24	2153,62
580,33	1880,18
580,41	1970,57
580,50	2176,21
580,58	2180,73
580,67	2225,93
580,75	1979,61
580,84	1963,79
580,92	1877,92
581,01	2334,40
581,09	2192,03
581,18	1694,87
581,26	1853,06
581,35	2058,70
581,43	2282,43
581,52	2201,07
581,60	2060,96
581,69	1866,62
581,77	1755,89
581,86	2544,57
581,94	1771,70
582,02	1997,69
582,11	1972,83
582,19	2316,32
582,28	3629,28
582,36	2049,66
582,45	2045,14
582,53	1986,39
582,62	2146,84
582,70	1952,49
582,79	2381,86
582,87	1688,09
582,96	2241,75
583,04	2070,00
583,12	1850,80
583,21	1846,28
583,29	2164,91
583,38	2067,74
583,46	1710,69
583,55	1979,61
583,63	1651,93
583,71	2054,18
583,80	1812,38
583,88	1604,48
583,97	1624,82
584,05	1880,18
584,13	2131,02
584,22	1950,23
584,30	1907,29
584,39	1807,86
584,47	1534,42
584,55	1627,08
584,64	1918,59
584,72	1751,37
584,81	1459,85
584,89	1588,66
584,97	1801,08
585,06	1866,62
585,14	1622,56
585,23	1760,41
585,31	1636,12
585,39	1970,57
585,48	1943,45
585,56	1681,31
585,64	1507,31
585,73	1717,47
585,81	1602,22
585,90	3742,27
585,98	1660,97
586,06	1697,13
586,15	1703,91
586,23	1602,22
586,31	1491,49
586,40	1588,66
586,48	1606,74
586,56	1588,66
586,65	1500,53
586,73	1484,71
586,81	1618,04
586,90	1581,88
586,98	1373,98
587,06	1532,16
587,15	1448,55
587,23	1780,74
587,31	1319,74
587,40	1434,99
587,48	1306,18
587,56	1762,67
587,65	1064,38
587,73	1552,50
587,81	1498,27
587,90	1850,80
587,98	1380,75
588,06	1331,04
588,14	1593,18
588,23	1563,80
588,31	1606,74
588,39	1690,35
588,48	1511,82
588,56	1195,45
588,64	1184,15
588,72	1547,98
588,81	1236,13
588,89	1536,68
588,97	1385,27
589,06	1335,56
589,14	1407,87
589,22	1441,77
589,30	1642,89
589,39	1292,62
589,47	1213,53
589,55	1500,53
589,63	1032,74
589,72	1204,49
589,80	1346,86
589,88	1489,23
589,96	1486,97
590,05	1222,57
590,13	1475,67
590,21	1803,34
590,29	1647,41
590,38	1421,43
590,46	1324,26
590,54	1254,20
590,62	1206,75
590,71	1299,40
590,79	1557,02
590,87	1190,93
590,95	1283,58
591,03	1430,47
591,12	1403,35
591,20	1294,88
591,28	1315,22
591,36	1294,88
591,44	1170,59
591,53	1086,98
591,61	1441,77
591,69	1319,74
591,77	1227,09
591,85	1342,34
591,94	1525,38
592,02	1107,32
592,10	1699,39
592,18	1263,24
592,26	1163,81
592,34	1392,05
592,43	1362,68
592,51	1231,61
592,59	1177,37
592,67	1283,58
592,75	1346,86
592,84	1310,70
592,92	1511,82
593,00	1132,17
593,08	874,55
593,16	1281,32
593,24	1434,99
593,32	1387,53
593,41	1256,46
593,49	1071,16
593,57	1301,66
593,65	1179,63
593,73	1387,53
593,81	1267,76
593,89	1279,06
593,98	1401,09
594,06	1236,13
594,14	1333,30
594,22	1337,82
594,30	1199,97
594,38	1179,63
594,46	1475,67
594,54	1238,39
594,62	1256,46
594,71	1229,35
594,79	931,05
594,87	1125,39
594,95	1310,70
595,03	1306,18
595,11	1204,49
595,19	1353,64
595,27	1324,26
595,35	1089,24
595,43	1204,49
595,52	971,73
595,60	1118,61
595,68	1559,28
595,76	1120,87
595,84	1123,13
595,92	1383,01
596,00	1489,23
596,08	1039,52
596,16	1138,95
596,24	1125,39
596,32	1062,12
596,40	1256,46
596,48	1105,06
596,56	1177,37
596,64	985,28
596,73	1475,67
596,81	1204,49
596,89	1163,81
596,97	1021,44
597,05	1263,24
597,13	1109,58
597,21	1075,68
597,29	847,44
597,37	1141,21
597,45	1204,49
597,53	1028,22
597,61	1227,09
597,69	1279,06
597,77	1127,65
597,85	912,97
597,93	1389,79
598,01	906,19
598,09	1529,90
598,17	1204,49
598,25	1084,72
598,33	1163,81
598,41	1204,49
598,49	1041,78
598,57	1086,98
598,65	1324,26
598,73	1258,72
598,81	1023,70
598,89	793,20
598,97	1186,41
599,05	1432,73
599,13	1107,32
599,21	1247,42
599,29	1138,95
599,37	1100,54
599,45	1005,62
599,53	1111,84
599,61	610,15
599,69	1035,00
599,77	1150,25
599,85	915,23
599,93	1175,11
600,00	933,31
600,08	998,84
600,16	962,69
600,24	1297,14
600,32	1021,44
600,40	944,61
600,48	1019,18
600,56	989,80
600,64	935,57
600,72	1143,47
600,80	1215,79
600,88	983,02
600,96	1123,13
601,04	799,98
601,12	1010,14
601,19	1030,48
601,27	1138,95
601,35	1044,04
601,43	1075,68
601,51	1270,02
601,59	1077,94
601,67	985,28
601,75	761,56
601,83	1145,73
601,91	851,95
601,98	951,39
602,06	1256,46
602,14	969,47
602,22	1161,55
602,30	1172,85
602,38	1272,28
602,46	978,51
602,54	983,02
602,61	1062,12
602,69	1064,38
602,77	964,95
602,85	996,58
602,93	998,84
603,01	992,06
603,09	870,03
603,17	822,58
603,24	940,09
603,32	858,73
603,40	1118,61
603,48	716,37
603,56	883,59
603,64	836,14
603,71	711,85
603,79	1059,86
603,87	960,43
603,95	1342,34
604,03	924,27
604,11	987,54
604,18	899,41
604,26	1055,34
604,34	946,87
604,42	1066,64
604,50	989,80
604,57	897,15
604,65	1055,34
604,73	1184,15
604,81	910,71
604,89	863,25
604,96	766,08
605,04	743,48
605,12	748,00
605,20	953,65
605,28	549,14
605,35	1003,36
605,43	1039,52
605,51	892,63
605,59	1283,58
605,67	763,82
605,74	711,85
605,82	1150,25
605,90	838,40
605,98	851,96
606,05	763,82
606,13	1010,14
606,21	858,73
606,29	870,03
606,36	628,23
606,44	967,21
606,52	711,85
606,60	899,41
606,67	883,59
606,75	734,44
606,83	677,95
606,91	1055,34
606,98	653,09
607,06	738,96
607,14	858,73
607,22	881,33
607,29	890,37
607,37	526,54
607,45	1023,70
607,52	919,75
607,60	802,24
607,68	806,76
607,76	766,08
607,83	720,89
607,91	1005,62
607,99	1120,87
608,06	872,29
608,14	793,20
608,22	743,48
608,30	851,95
608,37	779,64
608,45	799,98
608,53	865,51
608,60	754,78
608,68	793,20
608,76	958,17
608,83	696,03
608,91	759,30
608,99	795,46
609,06	872,29
609,14	781,90
609,22	702,81
609,29	689,25
609,37	917,49
609,45	553,66
609,52	662,13
609,60	639,53
609,68	912,97
609,75	757,04
609,83	734,44
609,91	949,13
609,98	571,74
610,06	691,51
610,13	809,02
610,21	748,00
610,29	836,14
610,36	603,37
610,44	763,82
610,52	5213,42
610,59	933,31
610,67	671,17
610,74	578,52
610,82	806,76
610,90	754,78
610,97	768,34
611,05	738,96
611,13	666,65
611,20	646,31
611,28	700,55
611,35	682,47
611,43	978,51
611,51	700,55
611,58	671,17
611,66	716,37
611,73	682,47
611,81	431,63
611,88	732,18
611,96	777,38
612,04	510,72
612,11	625,97
612,19	899,41
612,26	578,52
612,34	831,62
612,41	682,47
612,49	741,22
612,57	666,65
612,64	684,73
612,72	858,73
612,79	743,48
612,87	666,65
612,94	542,36
613,02	623,71
613,09	671,17
613,17	720,89
613,24	508,46
613,32	580,78
613,40	458,74
613,47	777,38
613,55	874,55
613,62	738,96
613,70	718,63
613,77	655,35
613,85	653,09
613,92	562,70
614,00	537,84
614,07	555,92
614,15	630,49
614,22	576,26
614,30	388,69
614,37	732,18
614,45	553,66
614,52	510,72
614,60	729,92
614,67	684,73
614,75	673,43
614,82	549,14
614,90	540,10
614,97	664,39
615,05	461,00
615,12	797,72
615,20	580,78
615,27	709,59
615,34	693,77
615,42	675,69
615,49	641,79
615,57	562,70
615,64	587,56
615,72	662,13
615,79	867,77
615,87	677,95
615,94	675,69
616,02	662,13
616,09	422,59
616,16	481,34
616,24	705,07
616,31	562,70
616,39	750,26
616,46	671,17
616,54	571,74
616,61	795,46
616,68	714,11
616,76	637,27
616,83	551,40
616,91	465,52
616,98	424,85
617,06	772,86
617,13	576,26
617,20	447,45
617,28	632,75
617,35	341,23
617,43	666,65
617,50	442,93
617,57	488,12
>>>>>End Processed Spectral Data<<<<<
