SpectraSuite Datei
++++++++++++++++++++++++++++++++++++
Datum: Wed Apr 14 17:59:05 CEST 2021
Benutzer: Student
Dark-Spektrum vorhanden: Ja
Referenz-Spektrum vorhanden: Nein
Zahl der probierten Teilspektren: 1
Spektrometer: USB2+H04734
Integrationszeit (usec): 65000000 (USB2+H04734)
Spektren Durchschnitt berechnet: 1 (USB2+H04734)
Boxcar Glättung: 0 (USB2+H04734)
Dunkelstromkorrektur: Nein (USB2+H04734)
Puls/Lampe aktiviert: Nein (USB2+H04734)
Correct for Detector Non-linearity: Nein (USB2+H04734)
Streulichtkorrektur: Nein (USB2+H04734)
Anzahl Pixel in verarbeitetem Spektrum: 2048
>>>>>Begin Processed Spectral Data<<<<<
418,45	38,42
418,57	38,42
418,69	38,42
418,80	-6,78
418,92	22,60
419,04	-51,98
419,16	271,18
419,28	63,28
419,40	162,71
419,52	-207,90
419,64	-221,46
419,75	214,68
419,87	-61,02
419,99	-67,79
420,11	-90,39
420,23	117,51
420,35	-2,26
420,47	-70,05
420,58	-63,28
420,70	-58,76
420,82	-92,65
420,94	42,94
421,06	262,14
421,18	142,37
421,29	11,30
421,41	160,45
421,53	210,16
421,65	198,86
421,77	158,19
421,89	-122,03
422,00	-257,62
422,12	-6,78
422,24	36,16
422,36	-219,20
422,48	2,26
422,59	-225,98
422,71	-169,49
422,83	24,86
422,95	-15,82
423,07	144,63
423,18	155,93
423,30	56,50
423,42	124,29
423,54	-140,11
423,66	58,76
423,77	-47,46
423,89	-45,20
424,01	-15,82
424,13	-15,82
424,25	167,23
424,36	-29,38
424,48	-38,42
424,60	151,41
424,72	273,44
424,84	6,78
424,95	214,68
425,07	-85,87
425,19	-277,96
425,31	-40,68
425,42	-155,93
425,54	117,51
425,66	212,42
425,78	158,19
425,89	-15,82
426,01	4,52
426,13	189,83
426,25	-128,81
426,36	119,77
426,48	142,37
426,60	149,15
426,72	149,15
426,83	393,21
426,95	-140,11
427,07	162,71
427,19	126,55
427,30	-13,56
427,42	131,07
427,54	0,00
427,66	-185,31
427,77	110,73
427,89	-149,15
428,01	-65,53
428,12	-33,90
428,24	-219,20
428,36	216,94
428,48	101,69
428,59	155,93
428,71	99,43
428,83	-146,89
428,94	-171,75
429,06	-83,61
429,18	-122,03
429,30	88,13
429,41	-81,35
429,53	-266,66
429,65	-413,55
429,76	-61,02
429,88	-167,23
430,00	-74,57
430,11	115,25
430,23	83,61
430,35	36,16
430,47	-56,50
430,58	27,12
430,70	-9,04
430,82	-106,21
430,93	-83,61
431,05	-103,95
431,17	-72,31
431,28	110,73
431,40	-31,64
431,52	-83,61
431,63	-180,79
431,75	198,86
431,87	275,70
431,98	-106,21
432,10	-58,76
432,22	298,30
432,33	45,20
432,45	-90,39
432,56	305,08
432,68	108,47
432,80	-117,51
432,91	-61,02
433,03	-298,30
433,15	-24,86
433,26	-56,50
433,38	42,94
433,50	187,57
433,61	76,83
433,73	2,26
433,84	4,52
433,96	-54,24
434,08	90,39
434,19	-51,98
434,31	-169,49
434,43	-189,83
434,54	18,08
434,66	-108,47
434,77	-135,59
434,89	-85,87
435,01	-20,34
435,12	72,31
435,24	-88,13
435,35	207,90
435,47	-212,42
435,59	85,87
435,70	-29,38
435,82	29,38
435,93	27,12
436,05	-31,64
436,17	-194,35
436,28	178,53
436,40	162,71
436,51	54,24
436,63	72,31
436,74	-38,42
436,86	-164,97
436,98	207,90
437,09	-33,90
437,21	-76,83
437,32	205,64
437,44	-31,64
437,55	67,79
437,67	-33,90
437,79	-15,82
437,90	42,94
438,02	81,35
438,13	72,31
438,25	-169,49
438,36	54,24
438,48	180,79
438,59	-115,25
438,71	-29,38
438,83	171,75
438,94	42,94
439,06	81,35
439,17	-9,04
439,29	-42,94
439,40	15,82
439,52	0,00
439,63	29,38
439,75	-9,04
439,86	-70,05
439,98	133,33
440,09	-72,31
440,21	15,82
440,32	-223,72
440,44	0,00
440,55	316,38
440,67	-122,03
440,78	51,98
440,90	9,04
441,01	-108,47
441,13	-81,35
441,24	-126,55
441,36	24,86
441,47	101,69
441,59	-99,43
441,70	-169,49
441,82	56,50
441,93	-115,25
442,05	-47,46
442,16	201,12
442,28	119,77
442,39	13,56
442,51	51,98
442,62	160,45
442,74	103,95
442,85	-216,94
442,97	128,81
443,08	-192,09
443,20	49,72
443,31	0,00
443,43	-4,52
443,54	65,53
443,66	70,05
443,77	9,04
443,88	18,08
444,00	-221,46
444,11	-92,65
444,23	-4,52
444,34	-128,81
444,46	-176,27
444,57	-74,57
444,69	-293,78
444,80	-58,76
444,91	83,61
445,03	47,46
445,14	11,30
445,26	-85,87
445,37	-72,31
445,49	38,42
445,60	-131,07
445,71	-38,42
445,83	56,50
445,94	76,83
446,06	-151,41
446,17	-24,86
446,29	146,89
446,40	15,82
446,51	76,83
446,63	-45,20
446,74	79,09
446,86	-122,03
446,97	-176,27
447,08	-155,93
447,20	-151,41
447,31	-67,79
447,43	-42,94
447,54	-79,09
447,65	-185,31
447,77	92,65
447,88	-65,53
448,00	-15,82
448,11	117,51
448,22	282,48
448,34	137,85
448,45	-58,76
448,56	45,20
448,68	45,20
448,79	390,95
448,90	74,57
449,02	-92,65
449,13	149,15
449,25	-65,53
449,36	-88,13
449,47	135,59
449,59	-54,24
449,70	-112,99
449,81	248,58
449,93	-126,55
450,04	4,52
450,15	-38,42
450,27	-128,81
450,38	22,60
450,49	99,43
450,61	-83,61
450,72	-124,29
450,83	-117,51
450,95	176,27
451,06	-36,16
451,17	29,38
451,29	63,28
451,40	13,56
451,51	-31,64
451,63	29,38
451,74	259,88
451,85	4,52
451,97	-311,86
452,08	-20,34
452,19	-133,33
452,31	-273,44
452,42	140,11
452,53	160,45
452,65	-262,14
452,76	70,05
452,87	271,18
452,98	88,13
453,10	-74,57
453,21	205,64
453,32	-110,73
453,44	108,47
453,55	70,05
453,66	-167,23
453,77	106,21
453,89	393,21
454,00	-83,61
454,11	-135,59
454,23	-18,08
454,34	115,25
454,45	-115,25
454,56	-155,93
454,68	-151,41
454,79	-27,12
454,90	-192,09
455,01	-2,26
455,13	-198,86
455,24	-241,80
455,35	-65,54
455,46	-146,89
455,58	-119,77
455,69	133,33
455,80	144,63
455,91	27,12
456,03	70,05
456,14	94,91
456,25	24,86
456,36	-196,61
456,48	-135,59
456,59	-158,19
456,70	72,31
456,81	-117,51
456,92	56,50
457,04	-20,34
457,15	-85,87
457,26	36,16
457,37	22,60
457,49	0,00
457,60	-164,97
457,71	-101,69
457,82	99,43
457,93	-45,20
458,05	-164,97
458,16	-194,35
458,27	323,16
458,38	-83,61
458,49	-216,94
458,61	33,90
458,72	-348,01
458,83	-15,82
458,94	-167,23
459,05	318,64
459,17	-259,88
459,28	124,29
459,39	-56,50
459,50	-97,17
459,61	49,72
459,72	63,28
459,84	33,90
459,95	131,07
460,06	-51,98
460,17	6,78
460,28	-33,90
460,39	223,72
460,51	72,31
460,62	-31,64
460,73	-140,11
460,84	-9,04
460,95	167,23
461,06	-94,91
461,18	-198,86
461,29	144,63
461,40	-140,11
461,51	221,46
461,62	-192,09
461,73	-178,53
461,84	6,78
461,96	79,09
462,07	-58,76
462,18	-94,91
462,29	162,71
462,40	-94,91
462,51	-85,87
462,62	124,29
462,73	40,68
462,85	67,79
462,96	289,26
463,07	135,59
463,18	239,54
463,29	-99,43
463,40	0,00
463,51	-72,31
463,62	-72,31
463,73	-126,55
463,85	149,15
463,96	-40,68
464,07	-76,83
464,18	-418,07
464,29	65,53
464,40	-29,38
464,51	-275,70
464,62	-22,60
464,73	-131,07
464,84	42,94
464,95	266,66
465,06	-13,56
465,18	128,81
465,29	-42,94
465,40	268,92
465,51	-83,61
465,62	-203,38
465,73	-83,61
465,84	-2,26
465,95	189,83
466,06	126,55
466,17	241,80
466,28	-72,31
466,39	-9,04
466,50	-22,60
466,61	128,81
466,72	65,53
466,83	-54,24
466,95	-171,75
467,06	29,38
467,17	-70,05
467,28	128,81
467,39	-40,68
467,50	2,26
467,61	140,11
467,72	210,16
467,83	119,77
467,94	-18,08
468,05	164,97
468,16	-144,63
468,27	277,96
468,38	-97,17
468,49	106,21
468,60	133,33
468,71	291,52
468,82	-128,81
468,93	106,21
469,04	-20,34
469,15	27,12
469,26	33,90
469,37	-33,90
469,48	-22,60
469,59	119,77
469,70	-126,55
469,81	27,12
469,92	2,26
470,03	-112,99
470,14	-155,93
470,25	266,66
470,36	51,98
470,47	-4,52
470,58	253,10
470,69	-65,54
470,80	20,34
470,91	158,19
471,02	-67,79
471,13	169,49
471,24	-85,87
471,35	18,08
471,46	-126,55
471,56	108,47
471,67	40,68
471,78	287,00
471,89	101,69
472,00	-20,34
472,11	20,34
472,22	76,83
472,33	110,73
472,44	-176,27
472,55	-280,22
472,66	6,78
472,77	72,31
472,88	535,58
472,99	42,94
473,10	-74,57
473,21	85,87
473,32	103,95
473,42	54,24
473,53	-22,60
473,64	390,95
473,75	137,85
473,86	-6,78
473,97	-13,56
474,08	151,41
474,19	-189,83
474,30	-284,74
474,41	29,38
474,52	29,38
474,62	-2,26
474,73	94,91
474,84	180,79
474,95	268,92
475,06	-2,26
475,17	58,76
475,28	70,05
475,39	42,94
475,50	-56,50
475,60	307,34
475,71	79,09
475,82	-56,50
475,93	36,16
476,04	115,25
476,15	-241,80
476,26	2,26
476,37	-65,54
476,47	-4,52
476,58	-2,26
476,69	9,04
476,80	-250,84
476,91	-174,01
477,02	-74,57
477,13	27,12
477,23	-11,30
477,34	110,73
477,45	-112,99
477,56	-51,98
477,67	-142,37
477,78	-112,99
477,89	11,30
477,99	-207,90
478,10	-9,04
478,21	128,81
478,32	207,90
478,43	38,42
478,54	214,68
478,64	-65,53
478,75	135,59
478,86	38,42
478,97	-117,51
479,08	-40,68
479,18	-2182,99
479,29	-250,84
479,40	18,08
479,51	31,64
479,62	128,81
479,72	-128,81
479,83	112,99
479,94	-65,53
480,05	644,05
480,16	-128,81
480,26	144,63
480,37	24,86
480,48	144,63
480,59	31,64
480,70	-61,02
480,80	-63,28
480,91	205,64
481,02	-122,03
481,13	-49,72
481,24	0,00
481,34	-6,78
481,45	-133,33
481,56	106,21
481,67	-149,15
481,77	40,68
481,88	-85,87
481,99	-259,88
482,10	40,68
482,20	262,14
482,31	83,61
482,42	24,86
482,53	-61,02
482,63	-135,59
482,74	-131,07
482,85	6,78
482,96	-18,08
483,06	133,33
483,17	4,52
483,28	94,91
483,39	11,30
483,49	103,95
483,60	-92,65
483,71	-101,69
483,81	90,39
483,92	-42,94
484,03	-167,23
484,14	-49,72
484,24	13,56
484,35	-58,76
484,46	140,11
484,57	40,68
484,67	-103,95
484,78	-38,42
484,89	85,87
484,99	-151,41
485,10	-63,28
485,21	305,08
485,31	119,77
485,42	79,09
485,53	18,08
485,63	-94,91
485,74	241,80
485,85	58,76
485,96	21441,24
486,06	546,88
486,17	81,35
486,28	207,90
486,38	27,12
486,49	58,76
486,60	0,00
486,70	11,30
486,81	-67,79
486,92	180,79
487,02	149,15
487,13	76,83
487,24	128,81
487,34	11,30
487,45	2,26
487,56	0,00
487,66	142,37
487,77	2,26
487,87	-40,68
487,98	11,30
488,09	140,11
488,19	33,90
488,30	122,03
488,41	-29,38
488,51	31,64
488,62	198,86
488,73	214,68
488,83	-79,09
488,94	144,63
489,04	183,05
489,15	61,02
489,26	-18,08
489,36	106,21
489,47	85,87
489,58	90,39
489,68	-58,76
489,79	-185,31
489,89	45,20
490,00	194,35
490,11	79,09
490,21	72,31
490,32	-54,24
490,42	99,43
490,53	-33,90
490,64	63,28
490,74	-20,34
490,85	38,42
490,95	1111,84
491,06	103,95
491,16	284,74
491,27	201,12
491,38	-49,72
491,48	316,38
491,59	-359,31
491,69	40,68
491,80	-20,34
491,90	-61,02
492,01	33,90
492,12	-124,29
492,22	42,94
492,33	174,01
492,43	-67,79
492,54	49,72
492,64	72,31
492,75	15,82
492,86	370,61
492,96	-72,31
493,07	-110,73
493,17	-83,61
493,28	103,95
493,38	0,00
493,49	-29,38
493,59	117,51
493,70	171,75
493,80	178,53
493,91	36,16
494,01	83,61
494,12	45,20
494,22	-271,18
494,33	-128,81
494,43	-167,23
494,54	-27,12
494,64	-36,16
494,75	-185,31
494,86	83,61
494,96	-47,46
495,07	58,76
495,17	171,75
495,28	-27,12
495,38	81,35
495,49	9,04
495,59	171,75
495,69	-133,33
495,80	119,77
495,90	-18,08
496,01	-29,38
496,11	-74,57
496,22	72,31
496,32	128,81
496,43	178,53
496,53	155,93
496,64	-90,39
496,74	-67,79
496,85	99,43
496,95	499,42
497,06	38,42
497,16	40,68
497,27	-94,91
497,37	-117,51
497,48	117,51
497,58	108,47
497,68	183,05
497,79	15,82
497,89	4,52
498,00	58,76
498,10	67,79
498,21	-171,75
498,31	-15,82
498,42	76,83
498,52	2,26
498,62	-311,86
498,73	291,52
498,83	140,11
498,94	-122,03
499,04	-24,86
499,15	99,43
499,25	103,95
499,35	-178,53
499,46	54,24
499,56	-142,37
499,67	-38,42
499,77	-101,69
499,87	61,02
499,98	115,25
500,08	47,46
500,19	-9,04
500,29	83,61
500,39	-2196,55
500,50	235,02
500,60	36,16
500,71	131,07
500,81	169,49
500,91	112,99
501,02	47,46
501,12	-207,90
501,22	-160,45
501,33	-135,59
501,43	-63,28
501,54	40,68
501,64	99,43
501,74	185,31
501,85	255,36
501,95	128,81
502,05	101,69
502,16	-99,43
502,26	-110,73
502,37	-94,91
502,47	205,64
502,57	70,05
502,68	-49,72
502,78	11,30
502,88	61,02
502,99	-31,64
503,09	-45,20
503,19	74,57
503,30	-2,26
503,40	-76,83
503,50	24,86
503,61	-13,56
503,71	180,79
503,81	-18,08
503,92	210,16
504,02	108,47
504,12	-144,63
504,23	-124,29
504,33	126,55
504,43	11,30
504,54	72,31
504,64	-189,83
504,74	61,02
504,84	45,20
504,95	-108,47
505,05	92,65
505,15	194,35
505,26	-94,91
505,36	38,42
505,46	253,10
505,56	29,38
505,67	-38,42
505,77	-117,51
505,87	158,19
505,98	92,65
506,08	-126,55
506,18	287,00
506,28	29,38
506,39	65,53
506,49	266,66
506,59	15,82
506,70	151,41
506,80	108,47
506,90	228,24
507,00	108,47
507,11	63,28
507,21	287,00
507,31	108,47
507,41	79,09
507,52	108,47
507,62	320,90
507,72	-192,09
507,82	119,77
507,93	151,41
508,03	45,20
508,13	180,79
508,23	122,03
508,34	185,31
508,44	155,93
508,54	110,73
508,64	-112,99
508,74	88,13
508,85	144,63
508,95	106,21
509,05	112,99
509,15	42,94
509,26	90,39
509,36	-36,16
509,46	63,28
509,56	24,86
509,66	-51,98
509,77	-42,94
509,87	-72,31
509,97	300,56
510,07	174,01
510,17	49,72
510,28	92,65
510,38	72,31
510,48	-20,34
510,58	436,15
510,68	178,53
510,78	90,39
510,89	-22,60
510,99	126,55
511,09	214,68
511,19	6,78
511,29	137,85
511,39	203,38
511,50	160,45
511,60	219,20
511,70	155,93
511,80	119,77
511,90	402,25
512,00	329,93
512,11	343,49
512,21	131,07
512,31	239,54
512,41	131,07
512,51	273,44
512,61	85,87
512,71	413,55
512,82	49,72
512,92	246,32
513,02	29,38
513,12	277,96
513,22	212,42
513,32	192,09
513,42	354,79
513,53	230,50
513,63	169,49
513,73	386,43
513,83	189,83
513,93	180,79
514,03	88,13
514,13	363,83
514,23	176,27
514,33	390,95
514,44	205,64
514,54	169,49
514,64	153,67
514,74	171,75
514,84	221,46
514,94	413,55
515,04	76,83
515,14	253,10
515,24	214,68
515,34	239,54
515,44	216,94
515,55	259,88
515,65	174,01
515,75	257,62
515,85	124,29
515,95	454,23
516,05	461,00
516,15	67,79
516,25	363,83
516,35	388,69
516,45	345,75
516,55	375,13
516,65	431,63
516,75	214,68
516,85	442,93
516,95	488,12
517,05	219,20
517,16	354,79
517,26	420,33
517,36	287,00
517,46	309,60
517,56	338,97
517,66	433,89
517,76	176,27
517,86	422,59
517,96	451,97
518,06	390,95
518,16	519,76
518,26	368,35
518,36	311,86
518,46	549,14
518,56	824,84
518,66	540,10
518,76	567,22
518,86	442,93
518,96	409,03
519,06	526,54
519,16	770,60
519,26	1997,69
519,36	684,73
519,46	465,52
519,56	723,14
519,66	971,73
519,76	578,52
519,86	874,55
519,96	610,15
520,06	714,11
520,16	863,25
520,26	684,73
520,36	777,38
520,46	560,44
520,56	849,70
520,66	512,98
520,76	689,25
520,86	775,12
520,96	960,43
521,06	571,74
521,16	705,07
521,26	779,64
521,35	736,70
521,45	856,47
521,55	684,73
521,65	729,92
521,75	894,89
521,85	910,71
521,95	854,21
522,05	752,52
522,15	763,82
522,25	558,18
522,35	994,32
522,45	856,47
522,55	655,35
522,65	732,18
522,75	955,91
522,85	1066,64
522,94	924,27
523,04	1256,46
523,14	962,69
523,24	1035,00
523,34	1003,36
523,44	1044,04
523,54	856,47
523,64	1068,90
523,74	989,80
523,84	1134,43
523,94	820,32
524,03	946,87
524,13	867,77
524,23	662,13
524,33	612,41
524,43	470,04
524,53	451,97
524,63	33,90
524,73	33,90
524,83	244,06
524,92	-22,60
525,02	76,83
525,12	264,40
525,22	72,31
525,32	61,02
525,42	-67,79
525,52	178,53
525,61	61,02
525,71	-149,15
525,81	63,28
525,91	137,85
526,01	70,05
526,11	293,78
526,21	210,16
526,30	51,98
526,40	45,20
526,50	-51,98
526,60	-137,85
526,70	146,89
526,80	-61,02
526,89	-149,15
526,99	106,21
527,09	56,50
527,19	-61,02
527,29	38,42
527,39	135,59
527,48	140,11
527,58	241,80
527,68	126,55
527,78	36,16
527,88	-126,55
527,97	74,57
528,07	9,04
528,17	-122,03
528,27	-36,16
528,37	101,69
528,46	-115,25
528,56	70,05
528,66	65,54
528,76	216,94
528,86	122,03
528,95	63,28
529,05	76,83
529,15	51,98
529,25	-250,84
529,35	90,39
529,44	27,12
529,54	-2,26
529,64	90,39
529,74	56,50
529,83	178,53
529,93	47,46
530,03	110,73
530,13	106,21
530,22	169,49
530,32	-49,72
530,42	36,16
530,52	-20,34
530,61	-56,50
530,71	63,28
530,81	-13,56
530,91	160,45
531,00	110,73
531,10	144,63
531,20	248,58
531,30	4,52
531,39	194,35
531,49	479,08
531,59	164,97
531,69	549,14
531,78	1028,22
531,88	879,07
531,98	967,21
532,07	467,78
532,17	980,77
532,27	689,25
532,37	363,83
532,46	359,31
532,56	388,69
532,66	128,81
532,75	15,82
532,85	24,86
532,95	-58,76
533,04	106,21
533,14	273,44
533,24	-22,60
533,34	271,18
533,43	-36,16
533,53	-27,12
533,63	187,57
533,72	196,61
533,82	51,98
533,92	72,31
534,01	92,65
534,11	201,12
534,21	115,25
534,30	-9,04
534,40	271,18
534,50	18,08
534,59	103,95
534,69	110,73
534,79	-133,33
534,88	456,49
534,98	207,90
535,08	99,43
535,17	-79,09
535,27	81,35
535,36	20,34
535,46	210,16
535,56	144,63
535,65	-94,91
535,75	-54,24
535,85	-58,76
535,94	248,58
536,04	108,47
536,14	354,79
536,23	131,07
536,33	61,02
536,42	-72,31
536,52	-2,26
536,62	146,89
536,71	22,60
536,81	-49,72
536,90	-20,34
537,00	-49,72
537,10	79,09
537,19	51,98
537,29	76,83
537,38	-74,57
537,48	85,87
537,58	280,22
537,67	302,82
537,77	24,86
537,86	275,70
537,96	1163,81
538,06	207,90
538,15	237,28
538,25	151,41
538,34	359,31
538,44	381,91
538,53	375,13
538,63	305,08
538,73	1016,92
538,82	546,88
538,92	976,25
539,01	1016,92
539,11	1265,50
539,20	1213,53
539,30	1455,33
539,39	1981,87
539,49	2295,98
539,59	2940,04
539,68	3730,98
539,78	4417,96
539,87	4506,10
539,97	5118,51
540,06	5468,78
540,16	5396,47
540,25	5516,24
540,35	6006,62
540,44	5656,35
540,54	5916,23
540,63	6309,44
540,73	6069,90
540,82	6447,29
540,92	7098,12
541,01	8006,57
541,11	8492,43
541,20	8051,77
541,30	8659,66
541,39	9353,43
541,49	9179,42
541,58	9604,27
541,68	9473,20
541,77	9459,64
541,87	9690,14
541,96	9518,39
542,06	10286,74
542,15	9979,40
542,25	7733,13
542,34	10401,99
542,44	10300,29
542,53	10157,92
542,63	10966,94
542,72	10783,90
542,82	11048,30
542,91	10682,21
543,01	11034,74
543,10	11543,20
543,20	11037,00
543,29	11190,67
543,38	10946,60
543,48	11443,77
543,57	11568,06
543,67	11459,59
543,76	11771,44
543,86	12090,08
543,95	12740,91
544,05	12338,66
544,14	12273,12
544,23	12273,12
544,33	12618,88
544,42	12944,29
544,52	12596,28
544,61	12634,70
544,71	13140,90
544,80	12946,55
544,89	12691,19
544,99	13025,65
545,08	12713,79
545,18	12130,75
545,27	12232,45
545,36	12673,11
545,46	12399,67
545,55	12521,70
545,65	12481,03
545,74	12801,92
545,84	12406,45
545,93	12725,09
546,02	12697,97
546,12	12991,75
546,21	12587,24
546,30	12716,05
546,40	12869,72
546,49	12379,34
546,59	13165,76
546,68	12634,70
546,77	13168,02
546,87	12822,26
546,96	12679,89
547,05	12517,19
547,15	12650,51
547,24	12831,30
547,34	12743,17
547,43	13073,10
547,52	13111,52
547,62	12779,32
547,71	12691,19
547,80	12858,42
547,90	12978,19
547,99	13314,90
548,08	12639,22
548,18	12729,61
548,27	13208,69
548,36	12930,73
548,46	12937,51
548,55	13647,10
548,64	13403,04
548,74	13195,13
548,83	13274,23
548,92	13549,93
549,02	12853,90
549,11	13577,04
549,20	13992,85
549,30	13156,72
549,39	13814,33
549,48	13516,03
549,58	13012,09
549,67	13536,37
549,76	13482,13
549,85	13140,90
549,95	13683,26
550,04	13845,96
550,13	13296,83
550,23	13690,04
550,32	13522,81
550,41	13660,66
550,50	13947,66
550,60	13601,90
550,69	13475,35
550,78	13439,19
550,88	13861,78
550,97	13504,73
551,06	13949,92
551,15	13421,12
551,25	13583,82
551,34	12910,39
551,43	13592,86
551,52	13464,05
551,62	13692,30
551,71	13879,86
551,80	12849,38
551,89	13305,86
551,99	13534,11
552,08	13048,24
552,17	13030,17
552,26	13430,16
552,36	13066,32
552,45	13414,34
552,54	12955,59
552,63	13561,23
552,73	13997,37
552,82	13940,88
552,91	13312,64
553,00	13868,56
553,10	13556,71
553,19	13583,82
553,28	13488,91
553,37	11452,81
553,46	13039,21
553,56	13995,11
553,65	13292,31
553,74	13592,86
553,83	14035,79
553,92	13613,20
554,02	14126,18
554,11	13323,94
554,20	13258,41
554,29	13897,94
554,38	13398,52
554,48	13314,90
554,57	13253,89
554,66	13371,40
554,75	13357,84
554,84	13793,99
554,94	13493,43
555,03	13326,20
555,12	13326,20
555,21	13418,86
555,30	13861,78
555,39	13195,13
555,49	13755,57
555,58	13651,62
555,67	13694,56
555,76	13665,18
555,85	13543,15
555,94	13493,43
556,03	14139,74
556,13	13823,37
556,22	13484,39
556,31	13296,83
556,40	12991,75
556,49	14094,54
556,58	13305,86
556,67	13210,95
556,77	13373,66
556,86	13416,60
556,95	13563,49
557,04	13771,39
557,13	13520,55
557,22	13742,01
557,31	13992,85
557,40	13947,66
557,50	14512,61
557,59	14532,95
557,68	15158,92
557,77	15572,47
557,86	15780,38
557,95	16087,71
558,04	16216,52
558,13	16367,93
558,22	15554,39
558,31	15323,89
558,41	14661,76
558,50	14761,19
558,59	14325,05
558,68	14040,31
558,77	13970,25
558,86	13346,54
558,95	14026,75
559,04	13665,18
559,13	13294,57
559,22	12682,15
559,31	12842,60
559,40	13165,76
559,49	0,00
559,59	13079,88
559,68	12060,70
559,77	12711,53
559,86	12546,56
559,95	12404,19
560,04	12347,70
560,13	12944,29
560,22	13032,43
560,31	12395,15
560,40	12413,23
560,49	12182,73
560,58	12408,71
560,67	12092,34
560,76	12352,22
560,85	12223,41
560,94	12917,17
561,03	12390,63
561,12	12514,93
561,21	12433,57
561,30	12218,89
561,39	12575,94
561,48	12591,76
561,57	11997,42
561,66	12700,23
561,75	12578,20
561,84	12368,04
561,93	11857,32
562,02	12810,96
562,11	11897,99
562,20	12148,83
562,29	12359,00
562,38	12239,23
562,47	12555,60
562,56	12347,70
562,65	12544,30
562,74	12729,61
562,83	13606,42
562,92	13482,13
563,01	13757,83
563,10	13807,55
563,19	14178,16
563,28	14306,97
563,37	14309,23
563,46	14013,19
563,55	14092,28
563,64	14345,39
563,73	12960,11
563,82	13082,14
563,91	12754,47
564,00	12702,49
564,09	12589,50
564,18	12652,77
564,27	12598,54
564,35	13000,79
564,44	12842,60
564,53	12960,11
564,62	13014,35
564,71	12686,67
564,80	12584,98
564,89	12404,19
564,98	0,00
565,07	10026,86
565,16	11565,80
565,25	11188,41
565,34	-14189,46
565,43	10736,44
565,51	11082,19
565,60	11626,81
565,69	11039,26
565,78	11131,91
565,87	10282,22
565,96	10792,94
566,05	10926,27
566,14	11077,67
566,23	10804,24
566,32	10847,17
566,40	10675,43
566,49	10872,03
566,58	10004,26
566,67	10119,51
566,76	10198,60
566,85	10325,15
566,94	10426,84
567,03	10187,30
567,11	10051,71
567,20	10322,89
567,29	10359,05
567,38	10169,22
567,47	9848,33
567,56	10139,85
567,65	9696,92
567,73	9495,80
567,82	9696,92
567,91	9696,92
568,00	9581,67
568,09	8429,16
568,18	9446,08
568,27	9751,16
568,35	9696,92
568,44	9188,46
568,53	9211,06
568,62	9118,40
568,71	9079,99
568,80	9321,79
568,88	9798,61
568,97	9502,57
569,06	8765,87
569,15	9730,82
569,24	9281,11
569,32	9330,83
569,41	9344,39
569,50	8991,85
569,59	9217,84
569,68	9563,59
569,76	9531,95
569,85	9830,25
569,94	9602,01
570,03	9692,40
570,12	9977,14
570,20	9687,88
570,29	10270,92
570,38	9972,62
570,47	10953,38
570,56	9961,32
570,64	9916,12
570,73	10056,23
570,82	9931,94
570,91	9812,17
570,99	9482,24
571,08	9064,17
571,17	9192,98
571,26	9592,97
571,34	8603,16
571,43	8655,14
571,52	8903,72
571,61	3387,48
571,69	8261,93
571,78	8677,74
571,87	8573,79
571,96	8659,66
572,04	8598,64
572,13	8377,18
572,22	8282,27
572,31	8295,83
572,39	8345,54
572,48	8309,39
572,57	8182,84
572,66	7965,89
572,74	8189,62
572,83	8228,03
572,92	8270,97
573,00	8142,16
573,09	8664,18
573,18	8542,15
573,27	8467,57
573,35	7913,92
573,44	8006,57
573,53	8148,94
573,61	7889,06
573,70	9089,03
573,79	8078,88
573,87	8503,73
573,96	7744,43
574,05	7916,18
574,14	8096,96
574,22	8047,25
574,31	8126,34
574,40	7362,52
574,48	8551,19
574,57	8006,57
574,66	8124,08
574,74	7762,51
574,83	8589,60
574,92	8433,68
575,00	8198,65
575,09	8795,25
575,18	8280,01
575,26	8942,14
575,35	8198,65
575,43	8747,79
575,52	9181,68
575,61	9653,98
575,69	9681,10
575,78	9224,62
575,87	10388,43
575,95	10130,81
576,04	10591,81
576,13	11204,23
576,21	11308,18
576,30	11441,51
576,38	11262,98
576,47	12395,15
576,56	11136,43
576,64	11488,96
576,73	11016,66
576,82	10485,60
576,90	9979,40
576,99	10042,67
577,07	9479,98
577,16	9423,48
577,25	8908,24
577,33	8623,50
577,42	8460,79
577,50	8496,95
577,59	8228,03
577,68	8537,63
577,76	8058,55
577,85	7423,53
577,93	7457,43
578,02	7441,61
578,10	6578,36
578,19	7391,90
578,28	7041,62
578,36	6928,63
578,45	6799,82
578,53	6732,03
578,62	6512,82
578,70	6621,29
578,79	6729,77
578,88	6485,71
578,96	6101,53
579,05	6352,38
579,13	6329,78
579,22	6280,06
579,30	6194,19
579,39	6173,85
579,47	6293,62
579,56	5943,35
579,64	5360,31
579,73	5574,99
579,82	5814,54
579,90	5866,51
579,99	5800,98
580,07	5898,15
580,16	5712,84
580,24	6029,22
580,33	5269,92
580,41	5631,49
580,50	5656,35
580,58	5593,07
580,67	5717,36
580,75	5593,07
580,84	5513,98
580,92	5125,29
581,01	5767,08
581,09	5475,56
581,18	5303,82
581,26	5294,78
581,35	5342,23
581,43	5464,26
581,52	5518,50
581,60	5247,32
581,69	5256,36
581,77	5355,79
581,86	5579,51
581,94	5165,97
582,02	5330,93
582,11	5059,75
582,19	5491,38
582,28	7880,02
582,36	4973,88
582,45	5439,40
582,53	4962,58
582,62	5129,81
582,70	4867,67
582,79	5145,63
582,87	4677,84
582,96	5222,46
583,04	5220,20
583,12	4847,33
583,21	4906,09
583,29	5165,97
583,38	4946,76
583,46	4542,25
583,55	4964,84
583,63	4693,66
583,71	4732,08
583,80	4573,89
583,88	4826,99
583,97	4772,76
584,05	4621,35
584,13	4786,31
584,22	4736,60
584,30	4598,75
584,39	4829,25
584,47	4295,93
584,55	4424,74
584,64	4632,65
584,72	4605,53
584,81	4311,75
584,89	4458,64
584,97	4526,43
585,06	4497,06
585,14	4650,73
585,23	4476,72
585,31	4492,54
585,39	4564,85
585,48	4704,96
585,56	4370,51
585,64	4379,55
585,73	4447,34
585,81	4381,81
585,90	4876,71
585,98	4517,40
586,06	4650,73
586,15	4578,41
586,23	4314,01
586,31	4402,14
586,40	4232,66
586,48	4228,14
586,56	4117,41
586,65	4289,15
586,73	4395,36
586,81	4501,58
586,90	4088,03
586,98	3807,81
587,06	4078,99
587,15	4262,03
587,23	4386,33
587,31	4042,83
587,40	3850,75
587,48	3950,18
587,56	4614,57
587,65	4153,56
587,73	4045,09
587,81	4033,79
587,90	4036,05
587,98	3645,10
588,06	3952,44
588,14	3984,08
588,23	3694,82
588,31	4083,51
588,39	4182,94
588,48	4031,53
588,56	3810,07
588,64	3963,74
588,72	3929,84
588,81	3886,90
588,89	3864,31
588,97	3821,37
589,06	3690,30
589,14	4063,17
589,22	3961,48
589,30	3654,14
589,39	3665,44
589,47	3740,01
589,55	4117,41
589,63	3604,42
589,72	3712,90
589,80	3807,81
589,88	4015,71
589,96	3904,98
590,05	3816,85
590,13	3812,33
590,21	4345,65
590,29	3920,80
590,38	3518,55
590,46	3710,64
590,54	3685,78
590,62	3572,79
590,71	3566,01
590,79	3868,82
590,87	3258,67
590,95	3627,02
591,03	3586,35
591,12	3810,07
591,20	3482,39
591,28	3773,91
591,36	3590,87
591,44	3649,62
591,53	3482,39
591,61	3593,13
591,69	3511,77
591,77	3719,68
591,85	3439,46
591,94	3552,45
592,02	3317,43
592,10	3841,71
592,18	3525,33
592,26	3432,68
592,34	3279,01
592,43	3283,53
592,51	3484,65
592,59	3367,14
592,67	3312,91
592,75	3337,77
592,84	3163,76
592,92	3428,16
593,00	3324,21
593,08	3071,11
593,16	3156,98
593,24	3482,39
593,32	3385,22
593,41	3340,03
593,49	3127,60
593,57	3335,51
593,65	3299,35
593,73	3208,96
593,81	3421,38
593,89	3050,77
593,98	3448,50
594,06	3306,13
594,14	3414,60
594,22	3163,76
594,30	3233,81
594,38	3204,44
594,46	3486,91
594,54	3308,39
594,62	3407,82
594,71	3229,29
594,79	2980,71
594,87	3285,79
594,95	3100,48
595,03	3491,43
595,11	3306,13
595,19	3050,77
595,27	3154,72
595,35	2903,88
595,43	3251,89
595,52	2994,27
595,60	3114,04
595,68	3217,99
595,76	3102,74
595,84	3184,10
595,92	2921,96
596,00	3439,46
596,08	3016,87
596,16	3102,74
596,24	3041,73
596,32	2860,94
596,40	2931,00
596,48	2942,30
596,56	3102,74
596,64	2804,45
596,73	1520,86
596,81	2881,28
596,89	2714,05
596,97	2793,15
597,05	3394,26
597,13	2964,89
597,21	2958,11
597,29	2720,83
597,37	3134,38
597,45	2885,80
597,53	2750,21
597,61	2876,76
597,69	3265,45
597,77	2985,23
597,85	2759,25
597,93	3055,29
598,01	2723,09
598,09	3265,45
598,17	2845,12
598,25	2942,30
598,33	2700,49
598,41	2971,67
598,49	2714,05
598,57	2741,17
598,65	3098,22
598,73	3053,03
598,81	2919,70
598,89	2684,68
598,97	2770,55
599,05	3111,78
599,13	2709,53
599,21	2901,62
599,29	2741,17
599,37	2858,68
599,45	2838,34
599,53	2772,81
599,61	2404,46
599,69	2795,41
599,77	2885,80
599,85	2641,74
599,93	3091,44
600,00	2650,78
600,08	2784,11
600,16	2646,26
600,24	2756,99
600,32	2944,56
600,40	2594,28
600,48	2752,47
600,56	2492,59
600,64	2424,80
600,72	2763,77
600,80	2659,82
600,88	2234,97
600,96	2698,23
601,04	2585,24
601,12	2535,53
601,19	2639,48
601,27	2745,69
601,35	2562,64
601,43	2476,77
601,51	2743,43
601,59	2587,50
601,67	2379,60
601,75	2488,07
601,83	2759,25
601,91	2329,88
601,98	2341,18
602,06	2628,18
602,14	2592,02
602,22	2777,33
602,30	2449,65
602,38	2580,72
602,46	2359,26
602,54	2359,26
602,61	2560,38
602,69	2601,06
602,77	2515,19
602,85	2311,80
602,93	2345,70
603,01	2657,56
603,09	2413,50
603,17	2257,57
603,24	2497,11
603,32	2176,21
603,40	2259,83
603,48	2329,88
603,56	2223,67
603,64	2350,22
603,71	2284,69
603,79	2323,10
603,87	2359,26
603,95	2879,02
604,03	2404,46
604,11	2537,79
604,18	2499,37
604,26	2463,21
604,34	2384,12
604,42	2472,25
604,50	2456,43
604,57	2207,85
604,65	2316,32
604,73	2418,02
604,81	1523,12
604,89	2180,73
604,96	2370,56
605,04	2203,33
605,12	2248,53
605,20	2433,83
605,28	2232,71
605,35	2298,24
605,43	2359,26
605,51	2160,40
605,59	2246,27
605,67	2266,61
605,74	2284,69
605,82	2415,76
605,90	2094,86
605,98	2289,21
606,05	2022,55
606,13	2232,71
606,21	2323,10
606,29	2189,77
606,36	2006,73
606,44	2117,46
606,52	2058,70
606,60	2142,32
606,67	2079,04
606,75	2237,23
606,83	1923,11
606,91	2472,25
606,98	2074,52
607,06	1848,54
607,14	2112,94
607,22	2182,99
607,29	2178,47
607,37	2094,86
607,45	2031,59
607,52	2379,60
607,60	2160,40
607,68	1909,55
607,76	1891,48
607,83	1970,57
607,91	2237,23
607,99	2146,84
608,06	2099,38
608,14	2106,16
608,22	1968,31
608,30	1787,52
608,37	2063,22
608,45	1929,89
608,53	2088,08
608,60	1963,79
608,68	1941,19
608,76	2316,32
608,83	1900,52
608,91	1886,96
608,99	1999,95
609,06	2092,60
609,14	1929,89
609,22	1945,71
609,29	1846,28
609,37	1830,46
609,45	1787,52
609,52	1787,52
609,60	1871,14
609,68	2090,34
609,75	2002,21
609,83	1828,20
609,91	1984,13
609,98	1755,89
610,06	1943,45
610,13	1988,65
610,21	1900,52
610,29	1719,73
610,36	1511,82
610,44	1877,92
610,52	1780,74
610,59	1884,70
610,67	1925,37
610,74	1699,39
610,82	1828,20
610,90	1914,07
610,97	1584,14
611,05	1665,49
611,13	1957,01
611,20	1783,00
611,28	1550,24
611,35	1778,48
611,43	2042,88
611,51	1719,73
611,58	1733,29
611,66	1875,66
611,73	1568,32
611,81	1911,81
611,88	1728,77
611,96	1875,66
612,04	1595,44
612,11	1744,59
612,19	1889,22
612,26	1618,04
612,34	1934,41
612,41	1758,15
612,49	1902,77
612,57	1640,63
612,64	1810,12
612,72	1721,99
612,79	1701,65
612,87	1667,75
612,94	1448,55
613,02	1920,85
613,09	1789,78
613,17	1674,53
613,24	1557,02
613,32	1559,28
613,40	1588,66
613,47	1570,58
613,55	1552,50
613,62	1898,26
613,70	1744,59
613,77	1545,72
613,85	1611,26
613,92	1407,87
614,00	1520,86
614,07	1636,12
614,15	1586,40
614,22	1502,79
614,30	1457,59
614,37	1656,45
614,45	1346,86
614,52	1369,46
614,60	1360,42
614,67	1604,48
614,75	1446,29
614,82	1333,30
614,90	1563,80
614,97	1762,67
615,05	1547,98
615,12	1622,56
615,20	1471,15
615,27	1505,05
615,34	1780,74
615,42	1568,32
615,49	1717,47
615,57	1547,98
615,64	1315,22
615,72	1674,53
615,79	1785,26
615,87	1572,84
615,94	1683,57
616,02	1500,53
616,09	1640,63
616,16	1215,79
616,24	1477,93
616,31	1557,02
616,39	1859,84
616,46	1740,07
616,54	1595,44
616,61	1640,63
616,68	1407,87
616,76	1618,04
616,83	1328,78
616,91	1242,91
616,98	1337,82
617,06	1676,79
617,13	1444,03
617,20	1378,49
617,28	1590,92
617,35	1358,16
617,43	1697,13
617,50	1358,16
617,57	1367,20
>>>>>End Processed Spectral Data<<<<<
