SpectraSuite Datei
++++++++++++++++++++++++++++++++++++
Datum: Wed Apr 14 18:50:00 CEST 2021
Benutzer: Student
Dark-Spektrum vorhanden: Ja
Referenz-Spektrum vorhanden: Nein
Zahl der probierten Teilspektren: 1
Spektrometer: USB2+H04734
Integrationszeit (usec): 65000000 (USB2+H04734)
Spektren Durchschnitt berechnet: 1 (USB2+H04734)
Boxcar Glättung: 0 (USB2+H04734)
Dunkelstromkorrektur: Nein (USB2+H04734)
Puls/Lampe aktiviert: Nein (USB2+H04734)
Correct for Detector Non-linearity: Nein (USB2+H04734)
Streulichtkorrektur: Nein (USB2+H04734)
Anzahl Pixel in verarbeitetem Spektrum: 2048
>>>>>Begin Processed Spectral Data<<<<<
418,45	-42,94
418,57	-42,94
418,69	-42,94
418,80	22,60
418,92	4,52
419,04	-101,69
419,16	117,51
419,28	-13,56
419,40	54,24
419,52	74,57
419,64	-246,32
419,75	183,05
419,87	-65,53
419,99	-20,34
420,11	83,61
420,23	90,39
420,35	-67,79
420,47	31,64
420,58	-29,38
420,70	-61,02
420,82	-67,79
420,94	164,97
421,06	106,21
421,18	-33,90
421,29	99,43
421,41	133,33
421,53	341,23
421,65	323,16
421,77	300,56
421,89	-108,47
422,00	-58,76
422,12	47,46
422,24	230,50
422,36	-15,82
422,48	291,52
422,59	-67,79
422,71	-13,56
422,83	-27,12
422,95	-92,65
423,07	24,86
423,18	174,01
423,30	-33,90
423,42	90,39
423,54	-63,28
423,66	92,65
423,77	-4,52
423,89	221,46
424,01	-70,05
424,13	-124,29
424,25	164,97
424,36	38,42
424,48	-13,56
424,60	42,94
424,72	241,80
424,84	67,79
424,95	117,51
425,07	-203,38
425,19	-167,23
425,31	33,90
425,42	65,53
425,54	6,78
425,66	40,68
425,78	108,47
425,89	-20,34
426,01	63,28
426,13	63,28
426,25	-49,72
426,36	88,13
426,48	-92,65
426,60	54,24
426,72	-56,50
426,83	74,57
426,95	-49,72
427,07	244,06
427,19	74,57
427,30	83,61
427,42	142,37
427,54	22,60
427,66	146,89
427,77	237,28
427,89	-273,44
428,01	-13,56
428,12	-142,37
428,24	-83,61
428,36	189,83
428,48	241,80
428,59	160,45
428,71	49,72
428,83	-33,90
428,94	-117,51
429,06	-49,72
429,18	-38,42
429,30	61,02
429,41	-74,57
429,53	-370,61
429,65	6,78
429,76	94,91
429,88	-29,38
430,00	219,20
430,11	58,76
430,23	164,97
430,35	-94,91
430,47	-4,52
430,58	-49,72
430,70	-76,83
430,82	126,55
430,93	-51,98
431,05	67,79
431,17	-124,29
431,28	61,02
431,40	-27,12
431,52	-38,42
431,63	-81,35
431,75	131,07
431,87	-47,46
431,98	-33,90
432,10	-24,86
432,22	67,79
432,33	24,86
432,45	-210,16
432,56	171,75
432,68	133,33
432,80	-92,65
432,91	241,80
433,03	-280,22
433,15	-74,57
433,26	-47,46
433,38	-92,65
433,50	131,07
433,61	221,46
433,73	76,83
433,84	-142,37
433,96	49,72
434,08	33,90
434,19	38,42
434,31	-40,68
434,43	-271,18
434,54	160,45
434,66	-155,93
434,77	-180,79
434,89	-54,24
435,01	74,57
435,12	137,85
435,24	11,30
435,35	101,69
435,47	-9,04
435,59	58,76
435,70	-128,81
435,82	45,20
435,93	67,79
436,05	-81,35
436,17	-126,55
436,28	97,17
436,40	300,56
436,51	-36,16
436,63	-24,86
436,74	237,28
436,86	-162,71
436,98	115,25
437,09	90,39
437,21	-20,34
437,32	119,77
437,44	22,60
437,55	-81,35
437,67	628,23
437,79	-70,05
437,90	133,33
438,02	45,20
438,13	40,68
438,25	83,61
438,36	-146,89
438,48	29,38
438,59	-94,91
438,71	18,08
438,83	117,51
438,94	36,16
439,06	-70,05
439,17	239,54
439,29	-22,60
439,40	225,98
439,52	119,77
439,63	-198,86
439,75	88,13
439,86	65,53
439,98	33,90
440,09	133,33
440,21	192,09
440,32	-207,90
440,44	33,90
440,55	235,02
440,67	106,21
440,78	128,81
440,90	22,60
441,01	-56,50
441,13	33,90
441,24	-298,30
441,36	110,73
441,47	230,50
441,59	-287,00
441,70	293,78
441,82	81,35
441,93	-76,83
442,05	-54,24
442,16	-79,09
442,28	135,59
442,39	97,17
442,51	101,69
442,62	164,97
442,74	22,60
442,85	-271,18
442,97	79,09
443,08	-262,14
443,20	-2,26
443,31	65,53
443,43	45,20
443,54	259,88
443,66	29,38
443,77	65,53
443,88	119,77
444,00	2,26
444,11	-144,63
444,23	63,28
444,34	33,90
444,46	-92,65
444,57	119,77
444,69	-180,79
444,80	212,42
444,91	-230,50
445,03	-33,90
445,14	90,39
445,26	-38,42
445,37	18,08
445,49	-167,23
445,60	-6,78
445,71	501,68
445,83	112,99
445,94	-6,78
446,06	-42,94
446,17	-54,24
446,29	106,21
446,40	-9,04
446,51	174,01
446,63	67,79
446,74	-117,51
446,86	-155,93
446,97	31,64
447,08	-33,90
447,20	-210,16
447,31	70,05
447,43	-56,50
447,54	149,15
447,65	-9,04
447,77	2,26
447,88	-97,17
448,00	-6,78
448,11	131,07
448,22	178,53
448,34	79,09
448,45	9,04
448,56	167,23
448,68	61,02
448,79	237,28
448,90	45,20
449,02	-160,45
449,13	56,50
449,25	-112,99
449,36	-88,13
449,47	-4,52
449,59	49,72
449,70	-47,46
449,81	-9,04
449,93	-6,78
450,04	61,02
450,15	-47,46
450,27	-128,81
450,38	103,95
450,49	259,88
450,61	-189,83
450,72	-171,75
450,83	67,79
450,95	6,78
451,06	164,97
451,17	-133,33
451,29	31,64
451,40	20,34
451,51	-27,12
451,63	-112,99
451,74	205,64
451,85	-81,35
451,97	-117,51
452,08	-97,17
452,19	-13,56
452,31	45,20
452,42	101,69
452,53	31,64
452,65	-192,09
452,76	24,86
452,87	162,71
452,98	99,43
453,10	117,51
453,21	-4,52
453,32	0,00
453,44	18,08
453,55	56,50
453,66	-85,87
453,77	-13,56
453,89	221,46
454,00	-142,37
454,11	-103,95
454,23	51,98
454,34	128,81
454,45	-85,87
454,56	-126,55
454,68	-49,72
454,79	18,08
454,90	-76,83
455,01	-24,86
455,13	103,95
455,24	-169,49
455,35	65,53
455,46	167,23
455,58	-250,84
455,69	33,90
455,80	232,76
455,91	-92,65
456,03	22,60
456,14	-11,30
456,25	-131,07
456,36	-90,39
456,48	-253,10
456,59	-246,32
456,70	-47,46
456,81	-140,11
456,92	0,00
457,04	142,37
457,15	79,09
457,26	94,91
457,37	-67,79
457,49	-99,43
457,60	-42,94
457,71	-70,05
457,82	153,67
457,93	-40,68
458,05	-11,30
458,16	-162,71
458,27	176,27
458,38	-47,46
458,49	210,16
458,61	221,46
458,72	-135,59
458,83	36,16
458,94	-18,08
459,05	334,45
459,17	4,52
459,28	268,92
459,39	-169,49
459,50	-174,01
459,61	-20,34
459,72	40,68
459,84	-94,91
459,95	99,43
460,06	476,82
460,17	-9,04
460,28	40,68
460,39	92,65
460,51	-45,20
460,62	49,72
460,73	-431,63
460,84	108,47
460,95	413,55
461,06	-88,13
461,18	-92,65
461,29	244,06
461,40	-56,50
461,51	63,28
461,62	-20,34
461,73	13,56
461,84	196,60
461,96	-169,49
462,07	-155,93
462,18	-110,73
462,29	196,60
462,40	-36,16
462,51	33,90
462,62	-36,16
462,73	-110,73
462,85	49,72
462,96	-20,34
463,07	-15,82
463,18	-61,02
463,29	-293,78
463,40	-158,19
463,51	-18,08
463,62	54,24
463,73	131,07
463,85	275,70
463,96	2,26
464,07	-49,72
464,18	-616,93
464,29	131,07
464,40	228,24
464,51	-293,78
464,62	171,75
464,73	29,38
464,84	76,83
464,95	257,62
465,06	101,69
465,18	54,24
465,29	-142,37
465,40	-122,03
465,51	-97,17
465,62	-94,91
465,73	45,20
465,84	-20,34
465,95	320,90
466,06	70,05
466,17	92,65
466,28	-29,38
466,39	140,11
466,50	-106,21
466,61	128,81
466,72	341,23
466,83	-63,28
466,95	-128,81
467,06	24,86
467,17	45,20
467,28	162,71
467,39	67,79
467,50	56,50
467,61	-67,79
467,72	216,94
467,83	22,60
467,94	-81,35
468,05	9,04
468,16	-85,87
468,27	56,50
468,38	-22,60
468,49	169,49
468,60	103,95
468,71	305,08
468,82	-20,34
468,93	106,21
469,04	-266,66
469,15	-61,02
469,26	-149,15
469,37	20,34
469,48	0,00
469,59	61,02
469,70	-27,12
469,81	153,67
469,92	-70,05
470,03	164,97
470,14	-56,50
470,25	291,52
470,36	106,21
470,47	40,68
470,58	67,79
470,69	-90,39
470,80	207,90
470,91	126,55
471,02	-42,94
471,13	-42,94
471,24	-153,67
471,35	11,30
471,46	-88,13
471,56	-162,71
471,67	117,51
471,78	-29,38
471,89	-92,65
472,00	-112,99
472,11	76,83
472,22	151,41
472,33	-31,64
472,44	20,34
472,55	-20,34
472,66	149,15
472,77	38,42
472,88	126,55
472,99	88,13
473,10	-81,35
473,21	-9,04
473,32	219,20
473,42	49,72
473,53	6,78
473,64	-117,51
473,75	183,05
473,86	22,60
473,97	-18,08
474,08	-83,61
474,19	-6,78
474,30	-350,27
474,41	117,51
474,52	-135,59
474,62	-135,59
474,73	160,45
474,84	-13,56
474,95	106,21
475,06	-40,68
475,17	-2,26
475,28	72,31
475,39	128,81
475,50	-29,38
475,60	198,86
475,71	79,09
475,82	24,86
475,93	171,75
476,04	119,77
476,15	-6,78
476,26	-189,83
476,37	-47,46
476,47	178,53
476,58	-61,02
476,69	-70,05
476,80	-119,77
476,91	-135,59
477,02	-49,72
477,13	38,42
477,23	56,50
477,34	65,53
477,45	110,73
477,56	-83,61
477,67	61,02
477,78	-298,30
477,89	-76,83
477,99	9,04
478,10	-9,04
478,21	83,61
478,32	122,03
478,43	-58,76
478,54	164,97
478,64	65,53
478,75	108,47
478,86	83,61
478,97	-167,23
479,08	-33,90
479,18	-1844,02
479,29	-119,77
479,40	158,19
479,51	-47,46
479,62	33,90
479,72	124,29
479,83	15,82
479,94	-45,20
480,05	411,29
480,16	47,46
480,26	-72,31
480,37	149,15
480,48	-201,12
480,59	-67,79
480,70	24,86
480,80	-27,12
480,91	83,61
481,02	40,68
481,13	112,99
481,24	45,20
481,34	-4,52
481,45	24,86
481,56	6,78
481,67	31,64
481,77	-106,21
481,88	-74,57
481,99	-253,10
482,10	183,05
482,20	153,67
482,31	20,34
482,42	160,45
482,53	38,42
482,63	110,73
482,74	-135,59
482,85	-70,05
482,96	22,60
483,06	223,72
483,17	-4,52
483,28	-18,08
483,39	40,68
483,49	291,52
483,60	40,68
483,71	-192,09
483,81	56,50
483,92	33,90
484,03	4,52
484,14	13,56
484,24	-201,12
484,35	155,93
484,46	70,05
484,57	225,98
484,67	-137,85
484,78	13,56
484,89	-61,02
484,99	49,72
485,10	-63,28
485,21	142,37
485,31	305,08
485,42	85,87
485,53	31,64
485,63	31,64
485,74	169,49
485,85	49,72
485,96	21405,09
486,06	494,90
486,17	103,95
486,28	45,20
486,38	11,30
486,49	-31,64
486,60	36,16
486,70	-291,52
486,81	-174,01
486,92	9,04
487,02	332,19
487,13	27,12
487,24	178,53
487,34	-33,90
487,45	-126,55
487,56	-119,77
487,66	180,79
487,77	-1050,82
487,87	-29,38
487,98	9,04
488,09	196,61
488,19	67,79
488,30	11,30
488,41	56,50
488,51	146,89
488,62	158,19
488,73	40,68
488,83	-135,59
488,94	54,24
489,04	47,46
489,15	58,76
489,26	-101,69
489,36	216,94
489,47	-49,72
489,58	158,19
489,68	63,28
489,79	-122,03
489,89	6,78
490,00	110,73
490,11	74,57
490,21	155,93
490,32	24,86
490,42	144,63
490,53	-67,79
490,64	54,24
490,74	-33,90
490,85	-38,42
490,95	-1398,83
491,06	-56,50
491,16	216,94
491,27	142,37
491,38	9,04
491,48	-522,02
491,59	-257,62
491,69	-4,52
491,80	72,31
491,90	31,64
492,01	36,16
492,12	11,30
492,22	162,71
492,33	259,88
492,43	-88,13
492,54	103,95
492,64	-72,31
492,75	36,16
492,86	176,27
492,96	110,73
493,07	13,56
493,17	-144,63
493,28	29,38
493,38	36,16
493,49	88,13
493,59	-20,34
493,70	185,31
493,80	-42,94
493,91	-119,77
494,01	-13,56
494,12	33,90
494,22	-6,78
494,33	88,13
494,43	-18,08
494,54	-187,57
494,64	-27,12
494,75	-124,29
494,86	160,45
494,96	-110,73
495,07	79,09
495,17	135,59
495,28	-160,45
495,38	126,55
495,49	-45,20
495,59	171,75
495,69	-131,07
495,80	187,57
495,90	40,68
496,01	-70,05
496,11	103,95
496,22	56,50
496,32	-76,83
496,43	221,46
496,53	94,91
496,64	38,42
496,74	2,26
496,85	90,39
496,95	332,19
497,06	20,34
497,16	103,95
497,27	-72,31
497,37	-101,69
497,48	51,98
497,58	94,91
497,68	176,27
497,79	-201,12
497,89	112,99
498,00	40,68
498,10	-74,57
498,21	-61,02
498,31	-112,99
498,42	40,68
498,52	-70,05
498,62	-51,98
498,73	31,64
498,83	167,23
498,94	164,97
499,04	-27,12
499,15	-36,16
499,25	124,29
499,35	-70,05
499,46	79,09
499,56	-110,73
499,67	27,12
499,77	-11,30
499,87	-4,52
499,98	56,50
500,08	-92,65
500,19	-72,31
500,29	36,16
500,39	-1453,07
500,50	343,49
500,60	-38,42
500,71	47,46
500,81	-56,50
500,91	54,24
501,02	-106,21
501,12	-189,83
501,22	-131,07
501,33	-56,50
501,43	-250,84
501,54	110,73
501,64	0,00
501,74	97,17
501,85	239,54
501,95	-81,35
502,05	-117,51
502,16	97,17
502,26	45,20
502,37	192,09
502,47	72,31
502,57	-122,03
502,68	42,94
502,78	248,58
502,88	90,39
502,99	-4,52
503,09	266,66
503,19	122,03
503,30	58,76
503,40	-81,35
503,50	153,67
503,61	-49,72
503,71	142,37
503,81	29,38
503,92	207,90
504,02	180,79
504,12	88,13
504,23	-146,89
504,33	61,02
504,43	-42,94
504,54	-126,55
504,64	101,69
504,74	259,88
504,84	124,29
504,95	-99,43
505,05	112,99
505,15	282,48
505,26	-61,02
505,36	-61,02
505,46	56,50
505,56	-22,60
505,67	-56,50
505,77	9,04
505,87	133,33
505,98	128,81
506,08	-2,26
506,18	187,57
506,28	-192,09
506,39	106,21
506,49	124,29
506,59	51,98
506,70	268,92
506,80	189,83
506,90	88,13
507,00	219,20
507,11	83,61
507,21	31,64
507,31	277,96
507,41	13,56
507,52	-6,78
507,62	300,56
507,72	-56,50
507,82	216,94
507,93	124,29
508,03	85,87
508,13	88,13
508,23	81,35
508,34	268,92
508,44	210,16
508,54	92,65
508,64	-151,41
508,74	128,81
508,85	250,84
508,95	51,98
509,05	-31,64
509,15	70,05
509,26	-76,83
509,36	88,13
509,46	307,34
509,56	58,76
509,66	63,28
509,77	126,55
509,87	117,51
509,97	18,08
510,07	-169,49
510,17	18,08
510,28	151,41
510,38	128,81
510,48	20,34
510,58	149,15
510,68	160,45
510,78	18,08
510,89	-36,16
510,99	83,61
511,09	241,80
511,19	115,25
511,29	83,61
511,39	13,56
511,50	124,29
511,60	124,29
511,70	142,37
511,80	92,65
511,90	160,45
512,00	235,02
512,11	255,36
512,21	205,64
512,31	108,47
512,41	49,72
512,51	4,52
512,61	368,35
512,71	1387,53
512,82	126,55
512,92	185,31
513,02	176,27
513,12	176,27
513,22	205,64
513,32	-20,34
513,42	27,12
513,53	155,93
513,63	117,51
513,73	255,36
513,83	287,00
513,93	-74,57
514,03	155,93
514,13	592,07
514,23	74,57
514,33	158,19
514,44	122,03
514,54	370,61
514,64	207,90
514,74	18,08
514,84	112,99
514,94	174,01
515,04	167,23
515,14	232,76
515,24	76,83
515,34	332,19
515,44	420,33
515,55	214,68
515,65	314,12
515,75	133,33
515,85	235,02
515,95	370,61
516,05	677,95
516,15	241,80
516,25	368,35
516,35	350,27
516,45	146,89
516,55	291,52
516,65	535,58
516,75	-13,56
516,85	485,86
516,95	671,17
517,05	302,82
517,16	309,60
517,26	334,45
517,36	266,66
517,46	284,74
517,56	372,87
517,66	300,56
517,76	277,96
517,86	268,92
517,96	216,94
518,06	363,83
518,16	323,16
518,26	280,22
518,36	359,31
518,46	461,00
518,56	601,11
518,66	300,56
518,76	472,30
518,86	271,18
518,96	207,90
519,06	343,49
519,16	562,70
519,26	1841,76
519,36	445,19
519,46	506,20
519,56	653,09
519,66	388,69
519,76	492,64
519,86	612,41
519,96	580,78
520,06	436,15
520,16	587,56
520,26	540,10
520,36	461,00
520,46	540,10
520,56	562,70
520,66	366,09
520,76	553,66
520,86	420,33
520,96	659,87
521,06	348,01
521,16	564,96
521,26	657,61
521,35	686,99
521,45	684,73
521,55	546,88
521,65	815,80
521,75	806,76
521,85	682,47
521,95	682,47
522,05	648,57
522,15	655,35
522,25	583,04
522,35	510,72
522,45	587,56
522,55	558,18
522,65	583,04
522,75	657,61
522,85	696,03
522,94	693,77
523,04	540,10
523,14	788,68
523,24	912,97
523,34	705,07
523,44	707,33
523,54	811,28
523,64	838,40
523,74	942,35
523,84	910,71
523,94	790,94
524,03	738,96
524,13	732,18
524,23	485,86
524,33	442,93
524,43	528,80
524,53	361,57
524,63	257,62
524,73	128,81
524,83	171,75
524,92	-38,42
525,02	133,33
525,12	169,49
525,22	94,91
525,32	164,97
525,42	-76,83
525,52	22,60
525,61	133,33
525,71	-210,16
525,81	81,35
525,91	29,38
526,01	553,66
526,11	151,41
526,21	9,04
526,30	38,42
526,40	103,95
526,50	142,37
526,60	58,76
526,70	124,29
526,80	-112,99
526,89	-183,05
526,99	117,51
527,09	58,76
527,19	-192,09
527,29	18,08
527,39	212,42
527,48	4,52
527,58	192,09
527,68	124,29
527,78	187,57
527,88	-167,23
527,97	-174,01
528,07	0,00
528,17	110,73
528,27	137,85
528,37	-70,05
528,46	22,60
528,56	171,75
528,66	6,78
528,76	92,65
528,86	244,06
528,95	65,53
529,05	162,71
529,15	90,39
529,25	-110,73
529,35	122,03
529,44	76,83
529,54	-90,39
529,64	158,19
529,74	94,91
529,83	171,75
529,93	36,16
530,03	33,90
530,13	47,46
530,22	198,86
530,32	-24,86
530,42	-124,29
530,52	81,35
530,61	-115,25
530,71	83,61
530,81	-22,60
530,91	97,17
531,00	106,21
531,10	266,66
531,20	255,36
531,30	108,47
531,39	958,17
531,49	766,08
531,59	899,41
531,69	2054,18
531,78	1871,14
531,88	2225,93
531,98	1957,01
532,07	1518,60
532,17	1367,20
532,27	795,46
532,37	449,71
532,46	350,27
532,56	212,42
532,66	162,71
532,75	-112,99
532,85	142,37
532,95	13,56
533,04	49,72
533,14	415,81
533,24	27,12
533,34	189,83
533,43	15,82
533,53	79,09
533,63	0,00
533,72	81,35
533,82	144,63
533,92	67,79
534,01	-33,90
534,11	196,60
534,21	-63,28
534,30	36,16
534,40	262,14
534,50	-36,16
534,59	99,43
534,69	42,94
534,79	-24,86
534,88	411,29
534,98	158,19
535,08	-9,04
535,17	-117,51
535,27	117,51
535,36	-76,83
535,46	171,75
535,56	124,29
535,65	-146,89
535,75	-4,52
535,85	-38,42
535,94	151,41
536,04	235,02
536,14	79,09
536,23	-90,39
536,33	241,80
536,42	67,79
536,52	81,35
536,62	110,73
536,71	-185,31
536,81	13,56
536,90	-128,81
537,00	-140,11
537,10	-61,02
537,19	106,21
537,29	4,52
537,38	22,60
537,48	684,73
537,58	257,62
537,67	38,42
537,77	11,30
537,86	-65,53
537,96	508,46
538,06	20,34
538,15	650,83
538,25	36,16
538,34	164,97
538,44	368,35
538,53	178,53
538,63	33,90
538,73	560,44
538,82	422,59
538,92	508,46
539,01	361,57
539,11	442,93
539,20	653,09
539,30	849,70
539,39	989,80
539,49	1150,25
539,59	1731,03
539,68	2341,18
539,78	2411,24
539,87	2937,78
539,97	3023,65
540,06	3245,11
540,16	3034,95
540,25	3346,80
540,35	3608,94
540,44	3233,81
540,54	3620,24
540,63	3728,72
540,73	3256,41
540,82	3984,08
540,92	4187,46
541,01	4512,88
541,11	4987,44
541,20	4811,17
541,30	5062,01
541,39	5638,27
541,49	5534,32
541,58	5864,25
541,68	5805,50
541,77	5471,04
541,87	5636,01
541,96	5599,85
542,06	6142,21
542,15	5819,06
542,25	-4594,23
542,34	6119,61
542,44	6097,01
542,53	6058,60
542,63	6826,94
542,72	6144,47
542,82	6456,33
542,91	6205,49
543,01	6336,56
543,10	6422,43
543,20	6673,27
543,29	6515,08
543,38	6316,22
543,48	6641,63
543,57	6661,97
543,67	6591,92
543,76	6817,90
543,86	6928,63
543,95	7441,61
544,05	6856,32
544,14	7292,46
544,23	6716,21
544,33	6982,87
544,42	7333,14
544,52	7272,13
544,61	7181,73
544,71	7326,36
544,80	7486,81
544,89	7186,25
544,99	7669,85
545,08	7312,80
545,18	6661,97
545,27	7473,25
545,36	7075,52
545,46	6910,55
545,55	7265,35
545,65	6876,66
545,74	7457,43
545,84	7197,55
545,93	7159,13
546,02	7414,49
546,12	7468,73
546,21	7224,67
546,30	7416,75
546,40	7170,43
546,49	7025,80
546,59	7532,01
546,68	7195,29
546,77	7640,48
546,87	7527,49
546,96	7317,32
547,05	7459,69
547,15	7188,51
547,24	7489,07
547,34	7134,28
547,43	7369,30
547,52	7272,13
547,62	7138,80
547,71	7324,10
547,80	7441,61
547,90	7206,59
547,99	8006,57
548,08	7330,88
548,18	7127,50
548,27	7477,77
548,36	7477,77
548,46	7335,40
548,55	7760,25
548,64	7561,38
548,74	7470,99
548,83	7604,32
548,92	7769,29
549,02	7588,50
549,11	7419,01
549,20	7459,69
549,30	7328,62
549,39	7498,11
549,48	7699,23
549,58	7186,25
549,67	7588,50
549,76	7439,35
549,85	7202,07
549,95	7561,38
550,04	7552,34
550,13	7423,53
550,23	7452,91
550,32	7256,31
550,41	7683,41
550,50	7929,73
550,60	7389,64
550,69	7369,30
550,78	7382,86
550,88	7785,11
550,97	5665,39
551,06	7805,44
551,15	7579,46
551,25	7760,25
551,34	7030,32
551,43	7595,28
551,52	7583,98
551,62	7593,02
551,71	7715,05
551,80	7064,22
551,89	7367,04
551,99	7382,86
552,08	7050,66
552,17	6863,10
552,26	7486,81
552,36	7007,73
552,45	7405,46
552,54	6996,43
552,63	7283,42
552,73	7945,55
552,82	8135,38
552,91	7552,34
553,00	8078,88
553,10	7421,27
553,19	7574,94
553,28	7254,05
553,37	4702,70
553,46	7014,50
553,56	7762,51
553,65	6939,93
553,74	7342,18
553,83	7443,87
553,92	7355,74
554,02	7696,97
554,11	7206,59
554,20	7190,77
554,29	7794,15
554,38	7037,10
554,48	7434,83
554,57	7439,35
554,66	7143,32
554,75	7495,85
554,84	7179,47
554,94	7197,55
555,03	7091,34
555,12	6901,51
555,21	7231,45
555,30	7622,40
555,39	7037,10
555,49	7152,35
555,58	7586,24
555,67	7595,28
555,76	7380,60
555,85	7190,77
555,94	7163,65
556,03	7391,90
556,13	7333,14
556,22	7339,92
556,31	7335,40
556,40	7125,24
556,49	7665,34
556,58	6847,28
556,67	7339,92
556,77	7091,34
556,86	7409,97
556,95	7211,11
557,04	7380,60
557,13	7355,74
557,22	7532,01
557,31	7120,72
557,40	7159,13
557,50	7877,76
557,59	7434,83
557,68	7651,78
557,77	7922,96
557,86	7773,81
557,95	7769,29
558,04	7877,76
558,13	8029,17
558,22	7260,83
558,31	7321,84
558,41	7118,46
558,50	7217,89
558,59	7344,44
558,68	7326,36
558,77	7315,06
558,86	6750,10
558,95	7057,44
559,04	7138,80
559,13	6840,50
559,22	6605,48
559,31	6831,46
559,40	6720,73
559,49	0,00
559,59	6912,81
559,68	6304,92
559,77	6702,65
559,86	6781,74
559,95	6397,57
560,04	6354,64
560,13	6594,18
560,22	6964,79
560,31	6325,26
560,40	7522,97
560,49	6121,87
560,58	6257,46
560,67	6293,62
560,76	6381,75
560,85	6223,57
560,94	6675,53
561,03	6363,67
561,12	6903,77
561,21	6433,73
561,30	6196,45
561,39	6492,48
561,48	6716,21
561,57	6293,62
561,66	6564,80
561,75	6445,03
561,84	6607,74
561,93	5950,13
562,02	6729,77
562,11	5952,39
562,20	6300,40
562,29	6411,13
562,38	6216,79
562,47	6555,76
562,56	6318,48
562,65	6336,56
562,74	6467,63
562,83	6967,05
562,92	6939,93
563,01	7009,99
563,10	6503,78
563,19	6811,12
563,28	7412,23
563,37	6494,74
563,46	6449,55
563,55	6463,11
563,64	6691,35
563,73	6153,51
563,82	6535,42
563,91	6336,56
564,00	6146,73
564,09	5974,98
564,18	6334,30
564,27	5988,54
564,35	6454,07
564,44	6284,58
564,53	6646,15
564,62	6610,00
564,71	5904,93
564,80	6060,86
564,89	5900,41
564,98	-10490,12
565,07	4182,94
565,16	5410,03
565,25	5719,62
565,34	2042,88
565,43	6951,23
565,51	5267,66
565,60	5970,46
565,69	5385,17
565,78	5437,15
565,87	5034,90
565,96	5344,49
566,05	5692,51
566,14	5516,24
566,23	5217,94
566,32	5360,31
566,40	5760,30
566,49	5541,10
566,58	5138,85
566,67	5308,34
566,76	5396,47
566,85	5231,50
566,94	5446,18
567,03	5057,49
567,11	5333,19
567,20	5294,78
567,29	5222,46
567,38	5258,62
567,47	4761,46
567,56	5236,02
567,65	5150,15
567,73	4657,50
567,82	4831,51
567,91	5206,64
568,00	4894,79
568,09	4112,89
568,18	4745,64
568,27	4971,62
568,35	4915,12
568,44	4567,11
568,53	4804,39
568,62	4632,65
568,71	4662,02
568,80	4745,64
568,88	5145,63
568,97	4621,35
569,06	4429,26
569,15	4704,96
569,24	4700,44
569,32	4497,06
569,41	4811,17
569,50	4632,65
569,59	4619,09
569,68	4935,46
569,76	4777,28
569,85	4982,92
569,94	5066,53
570,03	4856,37
570,12	4754,68
570,20	4614,57
570,29	4939,98
570,38	4813,43
570,47	5242,80
570,56	4741,12
570,64	4854,11
570,73	4833,77
570,82	4831,51
570,91	4779,54
570,99	4560,33
571,08	4490,28
571,17	4408,92
571,26	4910,61
571,34	4431,52
571,43	4544,51
571,52	4485,76
571,61	-691,51
571,69	4065,43
571,78	4176,16
571,87	4431,52
571,96	4318,53
572,04	4551,29
572,13	4232,66
572,22	4173,90
572,31	3968,26
572,39	4124,19
572,48	4325,31
572,57	3966,00
572,66	4040,57
572,74	4024,75
572,83	4015,71
572,92	4063,17
573,00	4097,07
573,09	4309,49
573,18	4379,55
573,27	4465,42
573,35	4115,15
573,44	3934,36
573,53	4160,34
573,61	4092,55
573,70	4951,28
573,79	4063,17
573,87	4268,81
573,96	3622,50
574,05	3986,34
574,14	3993,12
574,22	3884,64
574,31	4031,53
574,40	3862,05
574,48	4329,83
574,57	4083,51
574,66	4078,99
574,74	3688,04
574,83	4205,54
574,92	4097,07
575,00	4099,33
575,09	4248,48
575,18	3972,78
575,26	4388,59
575,35	3742,27
575,43	3981,82
575,52	4171,64
575,61	4253,00
575,69	4318,53
575,78	3956,96
575,87	4693,66
575,95	4682,36
576,04	4395,36
576,13	4738,86
576,21	5021,34
576,30	5055,23
576,38	4958,06
576,47	5260,88
576,56	4555,81
576,64	4662,02
576,73	4741,12
576,82	4612,31
576,90	4397,62
576,99	4648,47
577,07	4354,69
577,16	4232,66
577,25	3771,65
577,33	3559,23
577,42	3597,65
577,50	3633,80
577,59	3821,37
577,68	3895,94
577,76	3416,86
577,85	3602,17
577,93	3579,57
578,02	3559,23
578,10	2998,79
578,19	3428,16
578,28	3608,94
578,36	3389,74
578,45	3335,51
578,53	3290,31
578,62	3281,27
578,70	3143,42
578,79	3611,20
578,88	3154,72
578,96	3215,73
579,05	3267,71
579,13	3536,63
579,22	3416,86
579,30	3075,63
579,39	3473,36
579,47	3315,17
579,56	3220,25
579,64	3107,26
579,73	2727,61
579,82	3102,74
579,90	2842,86
579,99	3276,75
580,07	2985,23
580,16	3177,32
580,24	3186,36
580,33	2725,35
580,41	2982,97
580,50	2998,79
580,58	2881,28
580,67	2883,54
580,75	3003,31
580,84	2869,98
580,92	2754,73
581,01	3364,88
581,09	3016,87
581,18	2594,28
581,26	2795,41
581,35	2763,77
581,43	3109,52
581,52	3127,60
581,60	3073,37
581,69	2727,61
581,77	2779,59
581,86	3175,06
581,94	2641,74
582,02	2648,52
582,11	2729,87
582,19	3154,72
582,28	4271,07
582,36	3010,09
582,45	2926,48
582,53	2940,04
582,62	2933,26
582,70	2747,95
582,79	2998,79
582,87	2673,38
582,96	2707,27
583,04	3109,52
583,12	2386,38
583,21	2863,20
583,29	2808,97
583,38	2725,35
583,46	2623,66
583,55	2714,05
583,63	2558,12
583,71	2605,58
583,80	2567,16
583,88	2621,40
583,97	2644,00
584,05	2549,09
584,13	2897,10
584,22	2521,97
584,30	2406,72
584,39	2770,55
584,47	2259,83
584,55	2479,03
584,64	2659,82
584,72	2768,29
584,81	2393,16
584,89	2397,68
584,97	2553,61
585,06	2576,20
585,14	2460,95
585,23	2253,05
585,31	2465,47
585,39	2576,20
585,48	2619,14
585,56	2314,06
585,64	2201,07
585,73	2415,76
585,81	2436,09
585,90	2684,68
585,98	2372,82
586,06	2194,29
586,15	2576,20
586,23	2241,75
586,31	2424,79
586,40	2203,33
586,48	2106,16
586,56	2214,63
586,65	2451,91
586,73	2232,71
586,81	2393,16
586,90	2115,20
586,98	2286,95
587,06	2305,02
587,15	2623,66
587,23	2472,25
587,31	2225,93
587,40	2033,84
587,48	2106,16
587,56	2375,08
587,65	2332,14
587,73	2264,35
587,81	2117,46
587,90	2420,28
587,98	2038,36
588,06	1923,11
588,14	2144,58
588,23	1966,05
588,31	2314,06
588,39	2223,67
588,48	2216,89
588,56	2015,77
588,64	1837,24
588,72	2112,94
588,81	2101,64
588,89	1999,95
588,97	2167,17
589,06	2178,47
589,14	1880,18
589,22	2205,59
589,30	2119,72
589,39	1837,24
589,47	2237,23
589,55	2456,43
589,63	1825,94
589,72	1990,91
589,80	1993,17
589,88	2332,14
589,96	2192,03
590,05	2047,40
590,13	1873,40
590,21	2187,51
590,29	2137,80
590,38	1986,39
590,46	2106,16
590,54	2173,95
590,62	1966,05
590,71	2024,81
590,79	2289,21
590,87	1798,82
590,95	1846,28
591,03	1934,41
591,12	2065,48
591,20	2194,29
591,28	1844,02
591,36	1821,42
591,44	1853,06
591,53	1776,22
591,61	1997,69
591,69	1927,63
591,77	1981,87
591,85	2205,59
591,94	1828,20
592,02	1934,41
592,10	2155,88
592,18	2040,62
592,26	1550,24
592,34	1767,19
592,43	1880,18
592,51	2094,86
592,59	2004,47
592,67	2038,36
592,75	1995,43
592,84	1830,46
592,92	1789,78
593,00	1620,30
593,08	1719,73
593,16	1663,23
593,24	2074,52
593,32	1995,43
593,41	1846,28
593,49	1764,93
593,57	1834,98
593,65	1593,18
593,73	1961,53
593,81	1950,23
593,89	2106,16
593,98	2088,08
594,06	1740,07
594,14	1961,53
594,22	1658,71
594,30	1647,41
594,38	1703,91
594,46	1875,66
594,54	1803,34
594,62	1733,29
594,71	2056,44
594,79	1751,37
594,87	1737,81
594,95	1819,16
595,03	2029,33
595,11	1889,22
595,19	1563,80
595,27	1602,22
595,35	1520,86
595,43	1807,86
595,52	1631,60
595,60	1694,87
595,68	2316,32
595,76	1721,99
595,84	1629,34
595,92	1794,30
596,00	1907,29
596,08	1844,02
596,16	1724,25
596,24	1694,87
596,32	1480,19
596,40	1514,08
596,48	1586,40
596,56	1667,75
596,64	1572,84
596,73	1814,64
596,81	1728,77
596,89	1493,75
596,97	1586,40
597,05	1997,69
597,13	1593,18
597,21	1613,52
597,29	1518,60
597,37	1615,78
597,45	1609,00
597,53	1416,91
597,61	1733,29
597,69	2008,99
597,77	1566,06
597,85	1563,80
597,93	1796,56
598,01	1509,56
598,09	1821,42
598,17	1631,60
598,25	1606,74
598,33	1604,48
598,41	1557,02
598,49	1561,54
598,57	1579,62
598,65	1699,39
598,73	1841,76
598,81	1597,70
598,89	1172,85
598,97	1710,69
599,05	1749,11
599,13	1538,94
599,21	1701,65
599,29	1491,49
599,37	1640,63
599,45	1575,10
599,53	1810,12
599,61	1181,89
599,69	1683,57
599,77	1464,37
599,85	1319,74
599,93	1670,01
600,00	1466,63
600,08	1584,14
600,16	1570,58
600,24	1502,79
600,32	1726,51
600,40	1509,56
600,48	1541,20
600,56	1665,49
600,64	1674,53
600,72	1392,05
600,80	1676,79
600,88	1489,23
600,96	1647,41
601,04	1279,06
601,12	1419,17
601,19	1681,31
601,27	1301,66
601,35	1383,01
601,43	1559,28
601,51	1446,29
601,59	1604,48
601,67	1464,37
601,75	1538,94
601,83	1579,62
601,91	1376,23
601,98	1233,87
602,06	1746,85
602,14	1387,53
602,22	1613,52
602,30	1349,12
602,38	1498,27
602,46	1491,49
602,54	1380,75
602,61	1335,56
602,69	1489,23
602,77	1403,35
602,85	1322,00
602,93	1358,16
603,01	1654,19
603,09	1527,64
603,17	1335,56
603,24	1376,24
603,32	1283,58
603,40	1428,21
603,48	1143,47
603,56	1258,72
603,64	1353,64
603,71	1412,39
603,79	1407,87
603,87	1315,22
603,95	1676,79
604,03	1242,91
604,11	1272,28
604,18	1444,03
604,26	1455,33
604,34	1383,01
604,42	1378,49
604,50	1328,78
604,57	1312,96
604,65	1346,86
604,73	1509,56
604,81	1016,92
604,89	1211,27
604,96	1050,82
605,04	1116,35
605,12	1312,96
605,20	1394,31
605,28	589,82
605,35	1303,92
605,43	1288,10
605,51	1233,87
605,59	1337,82
605,67	1331,04
605,74	1229,35
605,82	1308,44
605,90	1267,76
605,98	1396,57
606,05	1222,57
606,13	1166,07
606,21	1285,84
606,29	1376,24
606,36	1150,25
606,44	1091,50
606,52	1179,63
606,60	1062,12
606,67	1247,42
606,75	1172,85
606,83	976,25
606,91	1224,83
606,98	1181,89
607,06	1118,61
607,14	1337,82
607,22	1319,74
607,29	1245,16
607,37	1231,61
607,45	1197,71
607,52	1166,07
607,60	1265,50
607,68	1046,30
607,76	1118,61
607,83	1116,35
607,91	1190,93
607,99	1254,20
608,06	1199,97
608,14	1251,94
608,22	1147,99
608,30	901,67
608,37	1177,37
608,45	996,58
608,53	1233,87
608,60	1215,79
608,68	1073,42
608,76	1491,49
608,83	1030,48
608,91	1075,68
608,99	937,83
609,06	1186,41
609,14	1089,24
609,22	1016,92
609,29	1177,37
609,37	1039,52
609,45	874,55
609,52	903,93
609,60	863,25
609,68	1098,28
609,75	976,25
609,83	1039,52
609,91	1179,63
609,98	1014,66
610,06	1166,07
610,13	1102,80
610,21	1265,50
610,29	1263,24
610,36	1005,62
610,44	1010,14
610,52	1091,50
610,59	1005,62
610,67	1125,39
610,74	924,27
610,82	924,27
610,90	1007,88
610,97	1091,50
611,05	998,84
611,13	1224,83
611,20	1238,39
611,28	1195,45
611,35	836,14
611,43	1342,34
611,51	831,62
611,58	1041,78
611,66	1163,81
611,73	874,55
611,81	1116,35
611,88	1147,99
611,96	1098,28
612,04	1041,78
612,11	1096,02
612,19	1184,15
612,26	732,18
612,34	1204,49
612,41	1109,58
612,49	985,28
612,57	908,45
612,64	1080,20
612,72	1177,37
612,79	1068,90
612,87	985,28
612,94	881,33
613,02	980,77
613,09	840,66
613,17	928,79
613,24	870,03
613,32	903,93
613,40	779,64
613,47	1064,38
613,55	931,05
613,62	1010,14
613,70	1003,36
613,77	883,59
613,85	838,40
613,92	858,73
614,00	919,75
614,07	829,36
614,15	924,27
614,22	723,14
614,30	741,22
614,37	980,77
614,45	698,29
614,52	662,13
614,60	915,23
614,67	849,70
614,75	727,66
614,82	653,09
614,90	754,78
614,97	813,54
615,05	754,78
615,12	924,27
615,20	1003,36
615,27	646,31
615,34	1003,36
615,42	946,87
615,49	922,01
615,57	757,04
615,64	677,95
615,72	788,68
615,79	944,61
615,87	971,73
615,94	727,66
616,02	922,01
616,09	863,25
616,16	754,78
616,24	741,22
616,31	788,68
616,39	1096,02
616,46	757,04
616,54	818,06
616,61	781,90
616,68	779,64
616,76	919,75
616,83	985,28
616,91	659,87
616,98	741,22
617,06	1025,96
617,13	863,25
617,20	729,92
617,28	881,33
617,35	544,62
617,43	940,09
617,50	908,45
617,57	888,11
>>>>>End Processed Spectral Data<<<<<
