SpectraSuite Datei
++++++++++++++++++++++++++++++++++++
Datum: Wed Apr 14 12:09:53 CEST 2021
Benutzer: Student
Dark-Spektrum vorhanden: Nein
Referenz-Spektrum vorhanden: Nein
Zahl der probierten Teilspektren: 1
Spektrometer: USB2+H04734
Integrationszeit (usec): 65000000 (USB2+H04734)
Spektren Durchschnitt berechnet: 1 (USB2+H04734)
Boxcar Glï¿½ttung: 0 (USB2+H04734)
Dunkelstromkorrektur: Nein (USB2+H04734)
Puls/Lampe aktiviert: Nein (USB2+H04734)
Correct for Detector Non-linearity: Nein (USB2+H04734)
Streulichtkorrektur: Nein (USB2+H04734)
Anzahl Pixel in verarbeitetem Spektrum: 2048
>>>>>Begin Processed Spectral Data<<<<<
418,45	1263,24
418,57	1263,24
418,69	1263,24
418,80	1206,75
418,92	1138,95
419,04	21664,97
419,16	7032,58
419,28	7484,55
419,40	6210,01
419,52	7532,01
419,64	12725,09
419,75	6612,26
419,87	6623,55
419,99	5367,09
420,11	6142,21
420,23	6885,69
420,35	9814,43
420,47	7800,92
420,58	6058,60
420,70	8033,69
420,82	7672,11
420,94	9511,61
421,06	13493,43
421,18	9493,54
421,29	8078,88
421,41	6282,32
421,53	8178,32
421,65	11502,52
421,77	10772,60
421,89	8006,57
422,00	13821,11
422,12	7274,38
422,24	8142,16
422,36	12379,34
422,48	12614,36
422,59	8447,24
422,71	11131,91
422,83	6126,39
422,95	6973,83
423,07	10128,55
423,18	13608,68
423,30	12713,79
423,42	7448,39
423,54	8463,05
423,66	7066,48
423,77	8894,68
423,89	7428,05
424,01	7367,04
424,13	5920,75
424,25	6655,19
424,36	9330,83
424,48	8282,27
424,60	7355,74
424,72	12975,93
424,84	7351,22
424,95	12151,09
425,07	8429,16
425,19	8438,20
425,31	9292,41
425,42	5839,39
425,54	10377,13
425,66	11936,41
425,78	7229,19
425,89	8544,41
426,01	7516,19
426,13	7981,71
426,25	13513,77
426,36	7706,01
426,48	9986,18
426,60	10609,89
426,72	7866,46
426,83	11762,40
426,95	9622,35
427,07	10759,04
427,19	15741,96
427,30	8417,86
427,42	5739,96
427,54	6323,00
427,66	7699,23
427,77	12413,23
427,89	9690,14
428,01	9586,19
428,12	10151,15
428,24	5581,77
428,36	10108,21
428,48	5712,84
428,59	6449,55
428,71	8910,50
428,83	6029,22
428,94	7172,69
429,06	7039,36
429,18	10078,83
429,30	8440,46
429,41	7159,13
429,53	11091,23
429,65	11127,39
429,76	9726,30
429,88	7007,73
430,00	9249,47
430,11	12336,40
430,23	7403,20
430,35	14998,48
430,47	7249,53
430,58	6158,03
430,70	11351,11
430,82	9150,04
430,93	20765,56
431,05	8438,20
431,17	7936,51
431,28	12447,13
431,40	6551,24
431,52	14008,67
431,63	5923,01
431,75	5859,73
431,87	9893,53
431,98	10874,29
432,10	8605,42
432,22	7690,19
432,33	12639,22
432,45	8345,54
432,56	8652,88
432,68	10670,91
432,80	7193,03
432,91	10481,08
433,03	8822,37
433,15	12476,51
433,26	8844,97
433,38	7660,82
433,50	5446,18
433,61	12004,20
433,73	13299,09
433,84	10774,86
433,96	6334,30
434,08	7963,63
434,19	7848,38
434,31	8216,73
434,43	8578,31
434,54	7986,23
434,66	5455,22
434,77	5437,15
434,89	10510,46
435,01	9068,69
435,12	6078,94
435,24	7272,13
435,35	7073,26
435,47	14605,27
435,59	8948,92
435,70	6614,52
435,82	8063,06
435,93	11683,31
436,05	8616,72
436,17	7764,77
436,28	8512,77
436,40	9206,54
436,51	6266,50
436,63	7762,51
436,74	11757,88
436,86	13766,87
436,98	24867,14
437,09	7023,54
437,21	10804,24
437,32	6182,89
437,44	10463,00
437,55	7141,06
437,67	34238,65
437,79	16367,93
437,90	9394,10
438,02	6682,31
438,13	63544,09
438,25	11064,12
438,36	10273,18
438,48	10571,47
438,59	11753,36
438,71	8883,38
438,83	12786,10
438,94	6429,21
439,06	11728,51
439,17	11884,43
439,29	6901,51
439,40	8481,13
439,52	7455,17
439,63	11014,40
439,75	6273,28
439,86	6040,52
439,98	8892,42
440,09	11048,30
440,21	7703,75
440,32	8835,93
440,44	5656,35
440,55	8234,81
440,67	7674,37
440,78	12230,19
440,90	6252,94
441,01	6962,53
441,13	6266,50
441,24	9281,11
441,36	13174,79
441,47	6607,74
441,59	11800,82
441,70	8808,81
441,82	11217,78
441,93	9776,01
442,05	5312,85
442,16	6720,73
442,28	5687,99
442,39	7920,70
442,51	10679,95
442,62	7043,88
442,74	11407,61
442,85	7789,63
442,97	15292,25
443,08	10562,43
443,20	11154,51
443,31	9021,23
443,43	7019,02
443,54	9479,98
443,66	5446,18
443,77	6808,86
443,88	5446,18
444,00	8616,72
444,11	11043,78
444,23	12533,00
444,34	6176,11
444,46	6189,67
444,57	13710,37
444,69	11529,64
444,80	9507,09
444,91	17267,34
445,03	9396,36
445,14	11635,85
445,26	5355,79
445,37	5902,67
445,49	8492,43
445,60	12128,49
445,71	14157,82
445,83	8146,68
445,94	6144,47
446,06	11441,51
446,17	31355,11
446,29	5617,93
446,40	7830,30
446,51	11733,02
446,63	7855,16
446,74	6438,25
446,86	6765,92
446,97	16110,31
447,08	14686,62
447,20	7864,20
447,31	5541,10
447,43	8017,87
447,54	8487,91
447,65	10031,37
447,77	5972,72
447,88	7773,81
448,00	8754,57
448,11	5371,61
448,22	6734,29
448,34	9583,93
448,45	5111,73
448,56	7502,63
448,68	9312,75
448,79	12729,61
448,90	9757,94
449,02	7400,94
449,13	6903,77
449,25	9143,26
449,36	6937,67
449,47	7416,75
449,59	13683,26
449,70	8259,67
449,81	6630,33
449,93	7518,45
450,04	6921,85
450,15	7412,23
450,27	7780,59
450,38	9556,81
450,49	7107,16
450,61	14049,35
450,72	7407,71
450,83	10594,07
450,95	7195,29
451,06	9536,47
451,17	13845,96
451,29	9378,28
451,40	5484,60
451,51	5238,28
451,63	5703,80
451,74	11866,35
451,85	7414,49
451,97	10756,78
452,08	7990,75
452,19	6307,18
452,31	12609,84
452,42	8173,80
452,53	13746,53
452,65	11830,20
452,76	5563,70
452,87	5154,67
452,98	6250,68
453,10	7606,58
453,21	5834,87
453,32	6822,42
453,44	6508,30
453,55	5046,20
453,66	15341,97
453,77	12404,19
453,89	10643,79
454,00	13807,55
454,11	9633,64
454,23	8189,62
454,34	8404,30
454,45	7446,13
454,56	9785,05
454,68	15177,00
454,79	7798,66
454,90	8865,30
455,01	6200,97
455,13	9751,16
455,24	13364,62
455,35	7834,82
455,46	4680,10
455,58	5217,94
455,69	12537,52
455,80	9500,32
455,91	5638,27
456,03	7846,12
456,14	12060,70
456,25	6347,86
456,36	5367,09
456,48	7376,08
456,59	12112,68
456,70	6255,20
456,81	11791,78
456,92	12725,09
457,04	10103,69
457,15	17240,22
457,26	5448,44
457,37	7552,34
457,49	6386,27
457,60	5570,48
457,71	8083,40
457,82	34157,29
457,93	8666,44
458,05	11726,25
458,16	6167,07
458,27	7452,91
458,38	8467,57
458,49	9943,24
458,61	7287,94
458,72	8675,48
458,83	8293,57
458,94	9800,87
459,05	9159,08
459,17	24919,12
459,28	6521,86
459,39	7719,57
459,50	5369,35
459,61	11023,44
459,72	5502,68
459,84	5814,54
459,95	7870,98
460,06	24412,92
460,17	5959,17
460,28	7642,74
460,39	8187,36
460,51	9138,74
460,62	7574,94
460,73	7346,70
460,84	4562,59
460,95	13658,40
461,06	13995,11
461,18	12203,07
461,29	12087,82
461,40	8065,32
461,51	9098,07
461,62	17821,00
461,73	10022,34
461,84	9803,13
461,96	9091,29
462,07	10770,34
462,18	6458,59
462,29	8359,10
462,40	11102,53
462,51	7461,95
462,62	13093,44
462,73	14225,61
462,85	10173,74
462,96	10051,71
463,07	10996,32
463,18	16657,19
463,29	9997,48
463,40	7077,78
463,51	6182,89
463,62	6036,00
463,73	10759,04
463,85	13147,68
463,96	8119,56
464,07	8087,92
464,18	8133,12
464,29	5708,32
464,40	10887,85
464,51	8555,71
464,62	7358,00
464,73	5462,00
464,84	34710,95
464,95	7974,93
465,06	7748,95
465,18	4912,87
465,29	9224,62
465,40	14205,28
465,51	7972,67
465,62	10284,48
465,73	7606,58
465,84	9299,19
465,95	9276,59
466,06	6625,81
466,17	7916,18
466,28	7477,77
466,39	13290,05
466,50	5364,83
466,61	4099,33
466,72	8756,83
466,83	5016,82
466,95	5880,07
467,06	4799,87
467,17	7895,84
467,28	6275,54
467,39	7371,56
467,50	9394,10
467,61	4942,24
467,72	5342,23
467,83	5986,28
467,94	8537,63
468,05	5095,91
468,16	9037,05
468,27	7886,80
468,38	5342,23
468,49	11895,73
468,60	5640,53
468,71	12008,72
468,82	11672,01
468,93	10566,95
469,04	13068,58
469,15	7335,40
469,26	6555,76
469,37	7541,04
469,48	11100,27
469,59	8985,07
469,70	5376,13
469,81	8802,03
469,92	4639,43
470,03	10069,79
470,14	5419,07
470,25	10630,23
470,36	7945,55
470,47	4897,05
470,58	5283,48
470,69	8948,92
470,80	11127,39
470,91	6058,60
471,02	6526,38
471,13	8311,65
471,24	8388,48
471,35	6935,41
471,46	14160,08
471,56	10401,99
471,67	11495,74
471,78	13197,39
471,89	7816,74
472,00	6200,97
472,11	9509,35
472,22	11030,22
472,33	7141,06
472,44	8072,10
472,55	8338,76
472,66	7658,56
472,77	6951,23
472,88	16017,66
472,99	9012,19
473,10	4842,81
473,21	6691,35
473,32	7003,21
473,42	5297,04
473,53	5697,03
473,64	12178,21
473,75	9073,21
473,86	6682,31
473,97	8996,37
474,08	11064,12
474,19	11084,45
474,30	16288,84
474,41	9321,79
474,52	14926,16
474,62	7624,66
474,73	6051,82
474,84	16302,40
474,95	11292,36
475,06	11488,96
475,17	5751,26
475,28	4596,49
475,39	7579,46
475,50	5595,33
475,60	5050,71
475,71	5676,69
475,82	10811,02
475,93	5737,70
476,04	12282,16
476,15	6973,83
476,26	8962,48
476,37	6770,44
476,47	6797,56
476,58	6198,71
476,69	4578,41
476,80	4671,06
476,91	7052,92
477,02	8180,58
477,13	8085,66
477,23	5857,47
477,34	8180,58
477,45	8896,94
477,56	6915,07
477,67	6528,64
477,78	8182,84
477,89	7735,39
477,99	6512,82
478,10	10682,20
478,21	9025,75
478,32	7816,74
478,43	6591,92
478,54	14921,64
478,64	8047,25
478,75	8035,95
478,86	6072,16
478,97	7525,23
479,08	7009,99
479,18	5407,77
479,29	6191,93
479,40	5236,02
479,51	4228,14
479,62	6033,74
479,72	6223,57
479,83	4915,12
479,94	8953,44
480,05	9909,34
480,16	5613,41
480,26	6716,21
480,37	5283,48
480,48	11201,97
480,59	7473,25
480,70	7771,55
480,80	7043,88
480,91	5676,69
481,02	4903,83
481,13	7968,15
481,24	7773,81
481,34	5398,73
481,45	16157,77
481,56	7547,82
481,67	9213,32
481,77	6506,04
481,88	6207,75
481,99	10157,92
482,10	8530,85
482,20	23172,27
482,31	6325,26
482,42	9018,97
482,53	6013,40
482,63	16720,46
482,74	9952,28
482,85	5403,25
482,96	5780,64
483,06	4917,38
483,17	9595,23
483,28	5328,67
483,39	7224,67
483,49	9780,53
483,60	16476,40
483,71	5624,71
483,81	10463,00
483,92	7009,99
484,03	7174,95
484,14	6483,45
484,24	6404,35
484,35	7301,50
484,46	7663,08
484,57	6185,15
484,67	8711,64
484,78	7231,45
484,89	15536,31
484,99	7489,07
485,10	7371,56
485,21	8792,99
485,31	8530,85
485,42	8386,22
485,53	6171,59
485,63	7599,80
485,74	13355,58
485,85	18144,16
485,96	34295,14
486,06	6793,04
486,17	6133,17
486,28	8476,61
486,38	4725,30
486,49	10173,74
486,60	5195,34
486,70	12885,54
486,81	6587,40
486,92	5726,40
487,02	5796,46
487,13	4239,44
487,24	6239,38
487,34	6865,36
487,45	13156,72
487,56	7163,65
487,66	5267,66
487,77	9256,25
487,87	6158,03
487,98	4219,10
488,09	6838,24
488,19	4341,13
488,30	16670,75
488,41	5913,97
488,51	4704,96
488,62	8327,46
488,73	5916,23
488,83	7764,77
488,94	9192,98
489,04	13102,48
489,15	5538,84
489,26	5082,35
489,36	8103,74
489,47	6431,47
489,58	5285,74
489,68	8851,74
489,79	5455,22
489,89	7516,19
490,00	6327,52
490,11	8223,51
490,21	8347,80
490,32	5170,49
490,42	7165,91
490,53	8438,20
490,64	5113,99
490,74	5299,30
490,85	4765,98
490,95	11757,88
491,06	8533,11
491,16	9136,48
491,27	11357,89
491,38	6124,13
491,48	15165,70
491,59	13531,85
491,69	8289,05
491,80	4515,14
491,90	12006,46
492,01	4876,71
492,12	9373,76
492,22	6503,78
492,33	11064,12
492,43	7635,96
492,54	4973,88
492,64	5355,79
492,75	7468,73
492,86	11728,51
492,96	6887,95
493,07	5687,99
493,17	7909,40
493,28	7979,45
493,38	8049,51
493,49	8874,34
493,59	8867,56
493,70	7796,41
493,80	5532,06
493,91	4872,19
494,01	5712,84
494,12	6029,22
494,22	10815,53
494,33	13012,09
494,43	12001,94
494,54	13723,93
494,64	8734,23
494,75	5613,41
494,86	11131,91
494,96	5550,14
495,07	6991,91
495,17	11701,39
495,28	6546,72
495,38	5602,11
495,49	7134,28
495,59	8515,03
495,69	7396,42
495,80	7376,08
495,90	6352,38
496,01	51352,32
496,11	9113,88
496,22	6887,95
496,32	5197,60
496,43	10017,82
496,53	6275,54
496,64	6689,09
496,74	8178,32
496,85	9242,69
496,95	12017,76
497,06	6198,71
497,16	8542,15
497,27	6858,58
497,37	11595,18
497,48	4939,98
497,58	5041,68
497,68	6076,68
497,79	10252,84
497,89	6223,57
498,00	7283,42
498,10	4756,94
498,21	11281,06
498,31	6110,57
498,42	5604,37
498,52	11373,71
498,62	7342,18
498,73	7371,56
498,83	8722,93
498,94	7007,73
499,04	12487,81
499,15	6562,54
499,25	5211,16
499,35	9563,59
499,46	13351,06
499,56	15452,70
499,67	9025,75
499,77	4316,27
499,87	8896,94
499,98	6115,09
500,08	3975,04
500,19	5475,56
500,29	7120,72
500,39	11699,13
500,50	10388,43
500,60	7089,08
500,71	7423,53
500,81	7965,89
500,91	4745,64
501,02	6219,05
501,12	8858,52
501,22	4933,20
501,33	9339,87
501,43	9798,61
501,54	5269,92
501,64	5812,28
501,74	6176,11
501,85	15782,64
501,95	5532,06
502,05	5543,36
502,16	6806,60
502,26	12442,61
502,37	9009,93
502,47	7543,30
502,57	6440,51
502,68	6483,45
502,78	5645,05
502,88	6336,56
502,99	4386,33
503,09	10259,62
503,19	5186,30
503,30	4413,44
503,40	5443,92
503,50	5990,80
503,61	7116,20
503,71	6354,64
503,81	6431,47
503,92	7550,08
504,02	10316,11
504,12	19353,16
504,23	11082,19
504,33	6587,40
504,43	6768,18
504,54	9755,68
504,64	9414,44
504,74	19746,37
504,84	7245,01
504,95	6221,31
505,05	3984,08
505,15	11884,43
505,26	4926,42
505,36	5936,57
505,46	5886,85
505,56	8546,67
505,67	8420,12
505,77	8666,44
505,87	5288,00
505,98	4259,78
506,08	6411,13
506,18	27269,34
506,28	9296,93
506,39	6680,05
506,49	6108,31
506,59	6006,62
506,70	4808,91
506,80	7753,47
506,90	14078,73
507,00	4284,63
507,11	7522,97
507,21	10266,40
507,31	8930,84
507,41	7238,23
507,52	6078,94
507,62	7337,66
507,72	13308,12
507,82	10989,54
507,93	6045,04
508,03	9823,47
508,13	7990,75
508,23	6856,32
508,34	8207,69
508,44	5156,93
508,54	5364,83
508,64	8282,27
508,74	4323,05
508,85	5866,51
508,95	6808,86
509,05	7267,61
509,15	6652,93
509,26	8383,96
509,36	5150,15
509,46	7339,92
509,56	4761,46
509,66	6901,51
509,77	6200,97
509,87	5974,98
509,97	6603,22
510,07	7403,20
510,17	4015,71
510,28	16826,68
510,38	10178,26
510,48	5909,45
510,58	8505,99
510,68	7348,96
510,78	8928,58
510,89	5923,01
510,99	4237,18
511,09	10722,88
511,19	8926,32
511,29	4714,00
511,39	10424,58
511,50	10982,76
511,60	4673,32
511,70	9299,19
511,80	9920,64
511,90	11003,10
512,00	6967,05
512,11	23371,14
512,21	7884,54
512,31	4756,94
512,41	12673,11
512,51	7633,70
512,61	15430,10
512,71	16492,22
512,82	6130,91
512,92	3909,50
513,02	8643,84
513,12	6228,08
513,22	5726,40
513,32	9893,53
513,42	7602,06
513,53	10440,40
513,63	8456,27
513,73	9464,16
513,83	4596,49
513,93	8510,51
514,03	9380,54
514,13	11929,63
514,23	5405,51
514,33	6406,61
514,44	6200,97
514,54	5947,87
514,64	13821,11
514,74	7258,57
514,84	5999,84
514,94	9278,85
515,04	9039,31
515,14	7721,83
515,24	8417,86
515,34	7717,31
515,44	3891,42
515,55	3796,51
515,65	8946,66
515,75	5511,72
515,85	6390,79
515,95	8865,30
516,05	11468,62
516,15	8065,32
516,25	4777,28
516,35	5373,87
516,45	5597,59
516,55	5229,24
516,65	6591,92
516,75	14795,09
516,85	8567,01
516,95	9644,94
517,05	10702,54
517,16	4680,10
517,26	18643,58
517,36	5428,11
517,46	4607,79
517,56	7778,33
517,66	6350,12
517,76	5565,96
517,86	5471,04
517,96	8483,39
518,06	4826,99
518,16	5208,90
518,26	7981,71
518,36	4955,80
518,46	5834,87
518,56	8591,86
518,66	10099,17
518,76	7068,74
518,86	9733,08
518,96	4949,02
519,06	5396,47
519,16	8273,23
519,26	7351,22
519,36	8399,78
519,46	6883,43
519,56	11719,47
519,66	14370,24
519,76	5195,34
519,86	5570,48
519,96	7577,20
520,06	6142,21
520,16	13186,09
520,26	6924,11
520,36	5744,48
520,46	5733,18
520,56	7202,07
520,66	6058,60
520,76	5263,14
520,86	6221,31
520,96	10838,13
521,06	8316,17
521,16	4824,73
521,26	6413,39
521,35	8605,42
521,45	4478,98
521,55	5843,91
521,65	10887,85
521,75	9997,48
521,85	4085,77
521,95	7235,97
522,05	4146,78
522,15	4756,94
522,25	53047,19
522,35	9398,62
522,45	5952,39
522,55	9247,21
522,65	7032,58
522,75	12047,14
522,85	5898,15
522,94	7861,94
523,04	8689,04
523,14	7419,01
523,24	5281,22
523,34	5269,92
523,44	7172,69
523,54	5075,57
523,64	5039,42
523,74	12148,83
523,84	8899,20
523,94	6438,25
524,03	4429,26
524,13	7692,45
524,23	7898,10
524,33	5021,34
524,43	6399,83
524,53	7034,84
524,63	5545,62
524,73	5864,25
524,83	4594,23
524,92	7150,09
525,02	4176,16
525,12	9385,06
525,22	6976,09
525,32	4910,61
525,42	10650,57
525,52	7208,85
525,61	8408,82
525,71	4112,89
525,81	8187,36
525,91	5055,23
526,01	47384,06
526,11	7963,63
526,21	9403,14
526,30	8221,25
526,40	8381,70
526,50	10216,68
526,60	9430,26
526,70	9256,25
526,80	8582,83
526,89	6356,90
526,99	5339,97
527,09	11373,71
527,19	13332,98
527,29	9855,11
527,39	7061,96
527,48	8508,25
527,58	8164,76
527,68	4607,79
527,78	11274,28
527,88	16444,77
527,97	7037,10
528,07	5154,67
528,17	10788,42
528,27	10817,79
528,37	6824,68
528,46	5376,13
528,56	13258,41
528,66	13436,93
528,76	4750,16
528,86	10187,30
528,95	7247,27
529,05	7554,60
529,15	7559,12
529,25	9719,52
529,35	10085,61
529,44	8817,85
529,54	12155,61
529,64	8844,97
529,74	6435,99
529,83	4924,16
529,93	6155,77
530,03	8377,18
530,13	7339,92
530,22	11412,13
530,32	10510,46
530,42	9597,49
530,52	3895,94
530,61	10017,82
530,71	5891,37
530,81	10031,37
530,91	6454,07
531,00	6698,13
531,10	5990,80
531,20	8069,84
531,30	6106,05
531,39	7098,12
531,49	5380,65
531,59	14756,67
531,69	9606,53
531,78	6006,62
531,88	8863,04
531,98	15393,95
532,07	6323,00
532,17	9258,51
532,27	11577,10
532,37	7773,81
532,46	9046,09
532,56	8067,58
532,66	4964,84
532,75	6793,04
532,85	7685,67
532,95	6887,95
533,04	6946,71
533,14	7909,40
533,24	8996,37
533,34	5923,01
533,43	9267,55
533,53	4329,83
533,63	8542,15
533,72	6451,81
533,82	5211,16
533,92	5095,91
534,01	17527,22
534,11	19199,50
534,21	8741,01
534,30	6327,52
534,40	6815,64
534,50	8282,27
534,59	6101,53
534,69	5120,77
534,79	7319,58
534,88	12101,38
534,98	9898,04
535,08	3807,81
535,17	14038,05
535,27	7522,97
535,36	5527,54
535,46	9597,49
535,56	4817,95
535,65	8600,90
535,75	9954,54
535,85	7638,22
535,94	5739,96
536,04	6718,47
536,14	9125,18
536,23	12182,73
536,33	5886,85
536,42	7735,39
536,52	6325,26
536,62	7735,39
536,71	13925,06
536,81	7452,91
536,90	7263,09
537,00	7703,75
537,10	7003,21
537,19	7389,64
537,29	8689,04
537,38	10417,81
537,48	7129,76
537,58	7172,69
537,67	5208,90
537,77	6429,21
537,86	5884,59
537,96	37693,92
538,06	6860,84
538,15	25502,15
538,25	14374,76
538,34	15662,86
538,44	14033,53
538,53	8517,29
538,63	4944,50
538,73	8896,94
538,82	7084,56
538,92	6542,20
539,01	14440,30
539,11	4596,49
539,20	15773,60
539,30	8354,58
539,39	5599,85
539,49	8741,01
539,59	12580,46
539,68	16361,15
539,78	15027,85
539,87	8727,45
539,97	9649,46
540,06	9267,55
540,16	5046,20
540,25	8890,16
540,35	12697,97
540,44	8991,85
540,54	13281,01
540,63	26166,54
540,73	6625,81
540,82	9414,44
540,92	6512,82
541,01	10872,03
541,11	11545,46
541,20	7898,10
541,30	7780,59
541,39	10426,84
541,49	8013,35
541,58	12928,47
541,68	12081,04
541,77	8081,14
541,87	4856,37
541,96	4546,77
542,06	10266,40
542,15	8519,55
542,25	15278,69
542,34	9970,36
542,44	5728,66
542,53	7138,80
542,63	8781,69
542,72	6063,12
542,82	5923,01
542,91	7473,25
543,01	5586,29
543,10	9934,20
543,20	7204,33
543,29	9190,72
543,38	5586,29
543,48	6946,71
543,57	6128,65
543,67	6045,04
543,76	6677,79
543,86	6354,64
543,95	15362,31
544,05	13949,92
544,14	16295,62
544,23	7400,94
544,33	6108,31
544,42	9565,85
544,52	6422,43
544,61	7861,94
544,71	12883,28
544,80	14944,24
544,89	8553,45
544,99	9369,25
545,08	12024,54
545,18	5066,53
545,27	17378,07
545,36	16205,22
545,46	9909,34
545,55	8664,18
545,65	7889,06
545,74	6548,98
545,84	4863,15
545,93	8266,45
546,02	8144,42
546,12	12352,22
546,21	10291,25
546,30	8137,64
546,40	8720,67
546,49	6033,74
546,59	8854,00
546,68	6381,75
546,77	11043,78
546,87	8659,66
546,96	11120,61
547,05	9111,62
547,15	5959,17
547,24	7925,22
547,34	6108,31
547,43	7907,14
547,52	11746,58
547,62	9192,98
547,71	9945,50
547,80	9789,57
547,90	7529,75
547,99	14316,01
548,08	8957,96
548,18	4219,10
548,27	6648,41
548,36	5405,51
548,46	6223,57
548,55	8313,91
548,64	13615,46
548,74	10114,99
548,83	8329,72
548,92	14401,88
549,02	7794,15
549,11	17703,49
549,20	9907,08
549,30	6598,70
549,39	8255,15
549,48	15931,78
549,58	5360,31
549,67	9380,54
549,76	7922,96
549,85	5163,71
549,95	11875,39
550,04	10646,05
550,13	4858,63
550,23	9626,87
550,32	5746,74
550,41	5367,09
550,50	8756,83
550,60	13920,54
550,69	7513,93
550,78	4594,23
550,88	10840,39
550,97	11746,58
551,06	7873,24
551,15	7703,75
551,25	13554,45
551,34	5351,27
551,43	7285,68
551,52	9154,56
551,62	12112,68
551,71	11814,38
551,80	11009,88
551,89	9861,89
551,99	7828,04
552,08	7744,43
552,17	6293,62
552,26	9414,44
552,36	4698,18
552,45	5005,52
552,54	4734,34
552,63	9744,38
552,73	15077,57
552,82	14293,41
552,91	8397,52
553,00	18858,26
553,10	8074,36
553,19	14557,81
553,28	6797,56
553,37	28864,78
553,46	5936,57
553,56	10704,80
553,65	5803,24
553,74	5141,11
553,83	9405,40
553,92	7859,68
554,02	10200,86
554,11	7326,36
554,20	5175,01
554,29	14508,09
554,38	6824,68
554,48	7556,86
554,57	6282,32
554,66	6829,20
554,75	13793,99
554,84	10261,88
554,94	8964,74
555,03	6354,64
555,12	5880,07
555,21	5416,81
555,30	15726,14
555,39	6384,01
555,49	6625,81
555,58	9170,38
555,67	10363,57
555,76	11947,71
555,85	5437,15
555,94	5513,98
556,03	7154,61
556,13	10806,50
556,22	7425,79
556,31	15816,53
556,40	5118,51
556,49	11572,58
556,58	7848,38
556,67	10472,04
556,77	7215,63
556,86	13504,73
556,95	10259,62
557,04	14112,62
557,13	15421,06
557,22	12537,52
557,31	8881,12
557,40	7823,52
557,50	12833,56
557,59	5959,17
557,68	8049,51
557,77	12652,77
557,86	8937,62
557,95	8465,31
558,04	8689,04
558,13	11488,96
558,22	9412,18
558,31	7265,35
558,41	5238,28
558,50	11418,91
558,59	15360,05
558,68	12209,85
558,77	11145,47
558,86	5016,82
558,95	5898,15
559,04	8951,18
559,13	11877,65
559,22	6155,77
559,31	7321,84
559,40	9737,60
559,49	65535,00
559,59	18573,52
559,68	5075,57
559,77	13949,92
559,86	15751,00
559,95	8275,49
560,04	7852,90
560,13	9617,83
560,22	17179,21
560,31	9089,03
560,40	9089,03
560,49	5281,22
560,58	6933,15
560,67	5665,39
560,76	5604,37
560,85	4519,66
560,94	12858,42
561,03	6266,50
561,12	21707,90
561,21	17983,71
561,30	7798,66
561,39	7608,84
561,48	10517,24
561,57	5175,01
561,66	10350,01
561,75	15222,20
561,84	29239,91
561,93	7502,63
562,02	9943,24
562,11	5613,41
562,20	6300,40
562,29	8336,50
562,38	4958,06
562,47	11604,21
562,56	12494,59
562,65	6657,45
562,74	8413,34
562,83	20885,33
562,92	9832,51
563,01	14311,49
563,10	5416,81
563,19	7052,92
563,28	22867,20
563,37	12325,10
563,46	5342,23
563,55	7012,24
563,64	20641,27
563,73	5265,40
563,82	9823,47
563,91	14270,81
564,00	7916,18
564,09	5617,93
564,18	8903,72
564,27	4989,70
564,35	10718,36
564,44	8060,80
564,53	11317,22
564,62	10790,68
564,71	9156,82
564,80	9364,73
564,89	9959,06
564,98	65535,00
565,07	10890,11
565,16	6176,11
565,25	29789,05
565,34	22469,47
565,43	7724,09
565,51	6167,07
565,60	14361,20
565,69	7696,97
565,78	15769,08
565,87	4246,22
565,96	3679,00
566,05	10336,45
566,14	13371,40
566,23	9956,80
566,32	14858,37
566,40	11739,80
566,49	19384,80
566,58	7938,77
566,67	8449,50
566,76	5938,83
566,85	7588,50
566,94	8722,93
567,03	17662,81
567,11	7685,67
567,20	9468,68
567,29	13405,30
567,38	10354,53
567,47	5010,04
567,56	8223,51
567,65	8725,19
567,73	5416,81
567,82	5428,11
567,91	9744,38
568,00	8230,29
568,09	9642,68
568,18	6117,35
568,27	7848,38
568,35	8856,26
568,44	6858,58
568,53	9260,77
568,62	5613,41
568,71	5606,63
568,80	6741,07
568,88	11339,81
568,97	13771,39
569,06	5260,88
569,15	9159,08
569,24	10230,24
569,32	19610,78
569,41	8573,79
569,50	5215,68
569,59	4747,90
569,68	5466,52
569,76	8042,73
569,85	10424,58
569,94	11364,67
570,03	6953,49
570,12	10960,16
570,20	33779,90
570,29	10395,21
570,38	9504,83
570,47	14415,44
570,56	5269,92
570,64	7204,33
570,73	8354,58
570,82	9197,50
570,91	11152,25
570,99	5353,53
571,08	7202,07
571,17	6675,53
571,26	12562,38
571,34	6225,82
571,43	9226,88
571,52	10148,89
571,61	11061,86
571,69	5466,52
571,78	10765,82
571,87	12539,78
571,96	11547,72
572,04	10820,05
572,13	11502,52
572,22	6646,15
572,31	5073,31
572,39	6449,55
572,48	8842,71
572,57	6824,68
572,66	6047,30
572,74	4528,69
572,83	9595,23
572,92	6989,65
573,00	5168,23
573,09	10153,41
573,18	11613,25
573,27	13012,09
573,35	6002,10
573,44	5005,52
573,53	7773,81
573,61	8044,99
573,70	10890,11
573,79	6164,81
573,87	16575,84
573,96	6133,17
574,05	7543,30
574,14	7495,85
574,22	6178,37
574,31	13723,93
574,40	5263,14
574,48	7900,36
574,57	8544,41
574,66	10935,31
574,74	7687,93
574,83	12320,58
574,92	12426,79
575,00	15269,66
575,09	12259,56
575,18	6447,29
575,26	14114,88
575,35	6487,96
575,43	6876,66
575,52	10991,80
575,61	14080,99
575,69	11498,00
575,78	6323,00
575,87	16847,01
575,95	9733,08
576,04	8090,18
576,13	9134,22
576,21	6756,88
576,30	9929,68
576,38	8824,63
576,47	10745,48
576,56	21881,91
576,64	8135,38
576,73	11656,19
576,82	10266,40
576,90	8682,26
576,99	11997,42
577,07	9127,44
577,16	11421,17
577,25	10334,19
577,33	17900,09
577,42	8867,56
577,50	6413,39
577,59	9059,65
577,68	12998,53
577,76	8155,72
577,85	7762,51
577,93	9102,59
578,02	9240,44
578,10	9154,56
578,19	8957,96
578,28	7267,61
578,36	8006,57
578,45	10087,87
578,53	5660,87
578,62	6008,88
578,70	6092,50
578,79	8496,95
578,88	8424,64
578,96	5852,95
579,05	6151,25
579,13	21260,46
579,22	9812,17
579,30	6350,12
579,39	10325,15
579,47	14749,89
579,56	7353,48
579,64	41822,63
579,73	7839,34
579,82	10196,34
579,90	6210,01
579,99	6673,27
580,07	10126,29
580,16	8713,90
580,24	11669,75
580,33	4700,44
580,41	8820,11
580,50	5516,24
580,58	8431,42
580,67	7276,64
580,75	11082,19
580,84	7997,53
580,92	5742,22
581,01	15172,48
581,09	9529,69
581,18	7511,67
581,26	6481,19
581,35	6560,28
581,43	11366,93
581,52	8569,27
581,60	10049,45
581,69	7857,42
581,77	8919,54
581,86	9599,75
581,94	7432,57
582,02	10469,78
582,11	5574,99
582,19	13563,49
582,28	18065,06
582,36	15945,34
582,45	16148,73
582,53	6257,46
582,62	6612,26
582,70	6763,66
582,79	10038,15
582,87	6029,22
582,96	10035,89
583,04	14099,06
583,12	8994,11
583,21	8655,14
583,29	10942,09
583,38	9834,77
583,46	8334,24
583,55	8865,30
583,63	5574,99
583,71	10261,88
583,80	8616,72
583,88	6709,43
583,97	18492,17
584,05	9913,86
584,13	11516,08
584,22	10718,36
584,30	7285,68
584,39	10838,13
584,47	11920,59
584,55	6548,98
584,64	9003,15
584,72	9507,09
584,81	7177,21
584,89	6334,30
584,97	6144,47
585,06	6964,79
585,14	8155,72
585,23	9629,13
585,31	6573,84
585,39	7753,47
585,48	9376,02
585,56	5407,77
585,64	9229,14
585,73	8214,47
585,81	8099,22
585,90	13023,39
585,98	7233,71
586,06	21954,22
586,15	14401,88
586,23	5132,07
586,31	6424,69
586,40	5873,29
586,48	12962,37
586,56	6223,57
586,65	6469,89
586,73	6266,50
586,81	10759,04
586,90	7348,96
586,98	5010,04
587,06	4836,03
587,15	7455,17
587,23	7274,38
587,31	8060,80
587,40	6284,58
587,48	5832,62
587,56	12598,54
587,65	19048,09
587,73	10589,55
587,81	9023,49
587,90	18433,41
587,98	7484,55
588,06	6350,12
588,14	6063,12
588,23	6933,15
588,31	15461,74
588,39	10481,08
588,48	7635,96
588,56	6411,13
588,64	9733,08
588,72	9100,33
588,81	6994,17
588,89	7938,77
588,97	8395,26
589,06	12813,22
589,14	12490,07
589,22	11027,96
589,30	7665,34
589,39	6508,30
589,47	10910,45
589,55	15321,63
589,63	8921,80
589,72	7095,86
589,80	6942,19
589,88	10230,24
589,96	11111,57
590,05	9161,34
590,13	9023,49
590,21	12596,28
590,29	13525,07
590,38	20347,49
590,46	12960,11
590,54	9276,59
590,62	6716,21
590,71	12180,47
590,79	12994,01
590,87	5249,58
590,95	5968,20
591,03	7667,60
591,12	10221,20
591,20	8275,49
591,28	15283,21
591,36	9665,28
591,44	7561,38
591,53	8320,69
591,61	7880,02
591,69	6295,88
591,77	9066,43
591,85	8783,95
591,94	6440,51
592,02	7028,06
592,10	11441,51
592,18	11055,08
592,26	8277,75
592,34	6106,05
592,43	5043,94
592,51	5518,50
592,59	6506,04
592,67	6083,46
592,75	6503,78
592,84	7717,31
592,92	11868,61
593,00	6980,61
593,08	7292,46
593,16	5819,06
593,24	7663,08
593,32	10842,65
593,41	9233,66
593,49	5263,14
593,57	6716,21
593,65	6350,12
593,73	9319,53
593,81	10899,15
593,89	12207,59
593,98	7701,49
594,06	5956,91
594,14	7217,89
594,22	6908,29
594,30	6657,45
594,38	7475,51
594,46	12892,32
594,54	11572,58
594,62	11023,44
594,71	7701,49
594,79	6499,26
594,87	8616,72
594,95	7927,48
595,03	12476,51
595,11	7916,18
595,19	14562,33
595,27	7647,26
595,35	6388,53
595,43	6302,66
595,52	6987,39
595,60	7213,37
595,68	16198,44
595,76	5683,47
595,84	10422,32
595,92	5889,11
596,00	13197,39
596,08	11502,52
596,16	9222,36
596,24	7947,81
596,32	7353,48
596,40	10223,46
596,48	10004,26
596,56	9771,49
596,64	6146,73
596,73	13174,79
596,81	6548,98
596,89	9224,62
596,97	4930,94
597,05	21567,79
597,13	7260,83
597,21	5256,36
597,29	13671,96
597,37	14277,59
597,45	9631,39
597,53	5371,61
597,61	8881,12
597,69	10944,34
597,77	7748,95
597,85	6494,74
597,93	8422,38
598,01	7455,17
598,09	10928,53
598,17	7832,56
598,25	8560,23
598,33	5369,35
598,41	7163,65
598,49	5179,52
598,57	6058,60
598,65	7428,05
598,73	8126,34
598,81	9091,29
598,89	7511,67
598,97	5712,84
599,05	13043,72
599,13	8759,09
599,21	8040,47
599,29	8673,22
599,37	7369,30
599,45	6472,15
599,53	18697,81
599,61	6420,17
599,69	9617,83
599,77	7744,43
599,85	6313,96
599,93	7238,23
600,00	4967,10
600,08	9940,98
600,16	5920,75
600,24	5825,84
600,32	14060,65
600,40	15344,23
600,48	12761,25
600,56	11893,47
600,64	13613,20
600,72	7757,99
600,80	8101,48
600,88	9493,54
600,96	12914,91
601,04	5443,92
601,12	6347,86
601,19	4510,62
601,27	11217,78
601,35	8180,58
601,43	10808,76
601,51	8700,34
601,59	7676,63
601,67	5965,94
601,75	6808,86
601,83	8533,11
601,91	4937,72
601,98	5561,44
602,06	11884,43
602,14	8571,53
602,22	9649,46
602,30	10937,57
602,38	8454,02
602,46	5715,10
602,54	11800,82
602,61	8867,56
602,69	8487,91
602,77	5202,12
602,85	5739,96
602,93	5927,53
603,01	8035,95
603,09	11934,15
603,17	6829,20
603,24	9378,28
603,32	5059,75
603,40	16465,10
603,48	10334,19
603,56	4822,47
603,64	5464,26
603,71	5758,04
603,79	8951,18
603,87	9041,57
603,95	17463,95
604,03	7113,94
604,11	11430,21
604,18	8752,31
604,26	6377,23
604,34	5052,97
604,42	7235,97
604,50	5846,17
604,57	6103,79
604,65	7699,23
604,73	7864,20
604,81	51386,22
604,89	6451,81
604,96	7034,84
605,04	9470,94
605,12	6960,27
605,20	10345,49
605,28	12503,63
605,35	8006,57
605,43	8677,74
605,51	6799,82
605,59	11814,38
605,67	15726,14
605,74	11742,06
605,82	8528,59
605,90	5782,90
605,98	14370,24
606,05	7773,81
606,13	9956,80
606,21	7805,44
606,29	7712,79
606,36	7828,04
606,44	6374,97
606,52	8128,60
606,60	7075,52
606,67	5089,13
606,75	6408,87
606,83	4411,18
606,91	10876,55
606,98	5715,10
607,06	7803,18
607,14	6980,61
607,22	7428,05
607,29	6133,17
607,37	8017,87
607,45	9290,15
607,52	10365,83
607,60	10058,49
607,68	7525,23
607,76	9498,06
607,83	4503,84
607,91	9909,34
607,99	7484,55
608,06	8851,74
608,14	6872,14
608,22	7430,31
608,30	12510,41
608,37	5387,43
608,45	4146,78
608,53	8399,78
608,60	8817,85
608,68	6169,33
608,76	6878,92
608,83	9934,20
608,91	5527,54
608,99	10347,75
609,06	9796,35
609,14	9898,04
609,22	7285,68
609,29	6006,62
609,37	5529,80
609,45	11059,60
609,52	5717,36
609,60	5685,73
609,68	6128,65
609,75	7647,26
609,83	4874,45
609,91	15143,10
609,98	6429,21
610,06	9554,55
610,13	10101,43
610,21	8209,95
610,29	8221,25
610,36	4682,36
610,44	6352,38
610,52	12108,16
610,59	6700,39
610,67	5181,78
610,74	7529,75
610,82	7233,71
610,90	8863,04
610,97	6659,71
611,05	9599,75
611,13	9030,27
611,20	24376,76
611,28	5959,17
611,35	7403,20
611,43	9037,05
611,51	9242,69
611,58	8232,55
611,66	12849,38
611,73	5527,54
611,81	12345,44
611,88	8560,23
611,96	10311,59
612,04	5565,96
612,11	5466,52
612,19	14062,91
612,26	6982,87
612,34	7816,74
612,41	7222,41
612,49	4325,31
612,57	4558,07
612,64	5425,85
612,72	14752,15
612,79	15628,97
612,87	4677,84
612,94	4399,88
613,02	7916,18
613,09	7172,69
613,17	9285,63
613,24	6790,78
613,32	10783,90
613,40	6207,75
613,47	6969,31
613,55	5100,43
613,62	11287,84
613,70	11803,08
613,77	5776,12
613,85	10750,00
613,92	6958,01
614,00	5050,71
614,07	6440,51
614,15	4334,35
614,22	5127,55
614,30	8666,44
614,37	4964,84
614,45	8180,58
614,52	5631,49
614,60	6829,20
614,67	10053,97
614,75	4485,76
614,82	9330,83
614,90	5981,76
614,97	5080,09
615,05	13158,98
615,12	10200,86
615,20	7559,12
615,27	7498,11
615,34	7470,99
615,42	7231,45
615,49	7358,00
615,57	4802,13
615,64	5376,13
615,72	6040,52
615,79	6623,55
615,87	8670,96
615,94	14747,63
616,02	8056,29
616,09	11504,78
616,16	8743,27
616,24	7773,81
616,31	5118,51
616,39	12372,56
616,46	11066,38
616,54	8058,55
616,61	13902,46
616,68	6006,62
616,76	7000,95
616,83	10377,13
616,91	6072,16
616,98	5471,04
617,06	11113,83
617,13	5758,04
617,20	6415,65
617,28	7412,23
617,35	5071,05
617,43	11785,00
617,50	6101,53
617,57	7202,07
>>>>>End Processed Spectral Data<<<<<
